1,2,3,4,5,6,7,8,9,10
1,2,3,4,5,6,7,8,9,10
1,2,3,4,5,6,7,8,9,10
1,2,3,4,5,6,7,8,9,10
1,2,3,4,5,6,7,8,9,10
0.056776,0.056776,0.056776,0.056776,0.056776,0.056777,0.056777,0.056777,0.056777,0.056777,0.056777,0.056777,0.056777,0.056777,0.056778,0.056778,0.056778,0.056778,0.056778,0.056778,0.056778,0.056778,0.056778,0.056779,0.056779,0.056779,0.056779,0.056779,0.056779,0.056779,0.056779,0.056779,0.056779,0.05678,0.05678,0.05678,0.05678,0.05678,0.05678,0.05678,0.05678,0.05678,0.056781,0.056781,0.056781,0.056781,0.056781,0.056781,0.056781,0.056781,0.056781,0.056782,0.056782,0.056782,0.056782,0.056782,0.056782,0.056782,0.056782,0.056782,0.056783,0.056783,0.056783,0.056783,0.056783,0.056783,0.056783,0.056783,0.056783,0.056784,0.056784,0.056784,0.056784,0.056784,0.056784,0.056784,0.056784,0.056784,0.056785,0.056785,0.056785,0.056785,0.056785,0.056785,0.056785,0.056785,0.056785,0.056785,0.056786,0.056786,0.056786,0.056786,0.056786,0.056786,0.056786,0.056786,0.056786,0.056787,0.056787,0.056787,0.056787,0.056787,0.056787,0.056787,0.056787,0.056787,0.056788,0.056788,0.056788,0.056788,0.056788,0.056788,0.056788,0.056788,0.056788,0.056789,0.056789,0.056789,0.056789,0.056789,0.056789,0.056789,0.056789,0.056789,0.05679,0.05679,0.05679,0.05679,0.05679,0.05679,0.05679,0.05679,0.05679,0.056791,0.056791,0.056791,0.056791,0.056791,0.056791,0.056791,0.056791,0.056791,0.056792,0.056792,0.056792,0.056792,0.056792,0.056792,0.056792,0.056792,0.056792,0.056792,0.056793,0.056793,0.056793,0.056793,0.056793,0.056793,0.056793,0.056793,0.056793,0.056794,0.056794,0.056794,0.056794,0.056794,0.056794,0.056794,0.056794,0.056794,0.056795,0.056795,0.056795,0.056795,0.056795,0.056795,0.056795,0.056795,0.056795,0.056796,0.056796,0.056796,0.056796,0.056796,0.056796,0.056796,0.056796,0.056796,0.056797,0.056797,0.056797,0.056797,0.056797,0.056797,0.056797,0.056797,0.056797,0.056798,0.056798,0.056798,0.056798,0.056798,0.056798,0.056798,0.056798,0.056798,0.056798,0.056799,0.056799,0.056799,0.056799,0.056799,0.056799,0.056799,0.056799,0.056799,0.0568,0.0568,0.0568,0.0568,0.0568,0.0568,0.0568,0.0568,0.0568,0.056801,0.056801,0.056801,0.056801,0.056801,0.056801,0.056801,0.056801,0.056801,0.056802,0.056802,0.056802,0.056802,0.056802,0.056802,0.056802,0.056802,0.056802,0.056803,0.056803,0.056803,0.056803,0.056803,0.056803,0.056803,0.056803,0.056803,0.056804,0.056804,0.056804,0.056804,0.056804,0.056804,0.056804,0.056804,0.056804,0.056805,0.056805,0.056805,0.056805,0.056805,0.056805,0.056805,0.056805,0.056805,0.056805,0.056806,0.056806,0.056806,0.056806,0.056806,0.056806,0.056806,0.056806,0.056806,0.056807,0.056807,0.056807,0.056807,0.056807,0.056807,0.056807,0.056807,0.056807,0.056808,0.056808,0.056808,0.056808,0.056808,0.056808,0.056808,0.056808,0.056808,0.056809,0.056809,0.056809,0.056809,0.056809,0.056809,0.056809,0.056809,0.056809,0.05681,0.05681,0.05681,0.05681,0.05681,0.05681,0.05681,0.05681,0.05681,0.056811,0.056811,0.056811,0.056811,0.056811,0.056811,0.056811,0.056811,0.056811,0.056812,0.056812,0.056812,0.056812,0.056812,0.056812,0.056812,0.056812,0.056812,0.056812,0.056813,0.056813,0.056813,0.056813,0.056813,0.056813,0.056813,0.056813,0.056813,0.056814,0.056814,0.056814,0.056814,0.056814,0.056814,0.056814,0.056814,0.056814,0.056815,0.056815,0.056815,0.056815,0.056815,0.056815,0.056815,0.056815,0.056815,0.056816,0.056816,0.056816,0.056816,0.056816,0.056816,0.056816,0.056816,0.056816,0.056817,0.056817,0.056817,0.056817,0.056817,0.056817,0.056817,0.056817,0.056817,0.056818,0.056818,0.056818,0.056818,0.056818,0.056818,0.056818,0.056818,0.056818,0.056818,0.056819,0.056819,0.056819,0.056819,0.056819,0.056819,0.056819,0.056819,0.056819,0.05682,0.05682,0.05682,0.05682,0.05682,0.05682,0.05682,0.05682,0.05682,0.056821,0.056821,0.056821,0.056821,0.056821,0.056821,0.056821,0.056821,0.056821,0.056822,0.056822,0.056822,0.056822,0.056822,0.056822,0.056822,0.056822,0.056822,0.056823,0.056823,0.056823,0.056823,0.056823,0.056823,0.056823,0.056823,0.056823,0.056824,0.056824,0.056824,0.056824,0.056824,0.056824,0.056824,0.056824,0.056824,0.056825,0.056825,0.056825,0.056825,0.056825,0.056825,0.056825,0.056825,0.056825,0.056825,0.056826,0.056826,0.056826,0.056826,0.056826,0.056826,0.056826,0.056826,0.056826,0.056827,0.056827,0.056827,0.056827,0.056827,0.056827,0.056827,0.056827,0.056827,0.056828,0.056828,0.056828,0.056828,0.056828,0.056828,0.056828,0.056828,0.056828,0.056829,0.056829,0.056829,0.056829,0.056829,0.056829,0.056829,0.056829,0.056829,0.05683,0.05683,0.05683,0.05683,0.05683,0.05683,0.05683,0.05683,0.05683,0.056831,0.056831,0.056831,0.056831,0.056831,0.056831,0.056831,0.056831,0.056831,0.056831,0.056832,0.056832,0.056832,0.056832,0.056832,0.056832,0.056832,0.056832,0.056832,0.056833,0.056833,0.056833,0.056833,0.056833,0.056833,0.056833,0.056833,0.056833,0.056834,0.056834,0.056834,0.056834,0.056834,0.056834,0.056834,0.056834,0.056834,0.056835,0.056835,0.056835,0.056835,0.056835,0.056835,0.056835,0.056835,0.056835,0.056836,0.056836,0.056836,0.056836,0.056836,0.056836,0.056836,0.056836,0.056836,0.056837,0.056837,0.056837,0.056837,0.056837,0.056837,0.056837,0.056837,0.056837,0.056838,0.056838,0.056838,0.056838,0.056838,0.056838,0.056838,0.056838,0.056838,0.056838,0.056839,0.056839,0.056839,0.056839,0.056839,0.056839,0.056839,0.056839,0.056839,0.05684,0.05684,0.05684,0.05684,0.05684,0.05684,0.05684,0.05684,0.05684,0.056841,0.056841,0.056841,0.056841,0.056841,0.056841,0.056841,0.056841,0.056841,0.056842,0.056842,0.056842,0.056842,0.056842,0.056842,0.056842,0.056842,0.056842,0.056843,0.056843,0.056843,0.056843,0.056843,0.056843,0.056843,0.056843,0.056843,0.056844,0.056844,0.056844,0.056844,0.056844,0.056844,0.056844,0.056844,0.056844,0.056844,0.056845,0.056845,0.056845,0.056845,0.056845,0.056845,0.056845,0.056845,0.056845,0.056846,0.056846,0.056846,0.056846,0.056846,0.056846,0.056846,0.056846,0.056846,0.056847,0.056847,0.056847,0.056847,0.056847,0.056847,0.056847,0.056847,0.056847,0.056848,0.056848,0.056848,0.056848,0.056848,0.056848,0.056848,0.056848,0.056848,0.056849,0.056849,0.056849,0.056849,0.056849,0.056849,0.056849,0.056849,0.056849,0.05685,0.05685,0.05685,0.05685,0.05685,0.05685,0.05685,0.05685,0.05685,0.056851,0.056851,0.056851,0.056851,0.056851,0.056851,0.056851,0.056851,0.056851,0.056851,0.056852,0.056852,0.056852,0.056852,0.056852,0.056852,0.056852,0.056852,0.056852,0.056853,0.056853,0.056853,0.056853,0.056853,0.056853,0.056853,0.056853,0.056853,0.056854,0.056854,0.056854,0.056854,0.056854,0.056854,0.056854,0.056854,0.056854,0.056855,0.056855,0.056855,0.056855,0.056855,0.056855,0.056855,0.056855,0.056855,0.056856,0.056856,0.056856,0.056856,0.056856,0.056856,0.056856,0.056856,0.056856,0.056857,0.056857,0.056857,0.056857,0.056857,0.056857,0.056857,0.056857,0.056857,0.056857,0.056858,0.056858,0.056858,0.056858,0.056858,0.056858,0.056858,0.056858,0.056858,0.056859,0.056859,0.056859,0.056859,0.056859,0.056859,0.056859,0.056859,0.056859,0.05686,0.05686,0.05686,0.05686,0.05686,0.05686,0.05686,0.05686,0.05686,0.056861,0.056861,0.056861,0.056861,0.056861,0.056861,0.056861,0.056861,0.056861,0.056862,0.056862,0.056862,0.056862,0.056862,0.056862,0.056862,0.056862,0.056862,0.056863,0.056863,0.056863,0.056863,0.056863,0.056863,0.056863,0.056863,0.056863,0.056864,0.056864,0.056864,0.056864,0.056864,0.056864,0.056864,0.056864,0.056864,0.056864,0.056865,0.056865,0.056865,0.056865,0.056865,0.056865,0.056865,0.056865,0.056865,0.056866,0.056866,0.056866,0.056866,0.056866,0.056866,0.056866,0.056866,0.056866,0.056867,0.056867,0.056867,0.056867,0.056867,0.056867,0.056867,0.056867,0.056867,0.056868,0.056868,0.056868,0.056868,0.056868,0.056868,0.056868,0.056868,0.056868,0.056869,0.056869,0.056869,0.056869,0.056869,0.056869,0.056869,0.056869,0.056869,0.05687,0.05687,0.05687,0.05687,0.05687,0.05687,0.05687,0.05687,0.05687,0.056871,0.056871,0.056871,0.056871,0.056871,0.056871,0.056871,0.056871,0.056871,0.056871,0.056872,0.056872,0.056872,0.056872,0.056872,0.056872,0.056872,0.056872,0.056872,0.056873,0.056873,0.056873,0.056873,0.056873,0.056873,0.056873,0.056873,0.056873,0.056874,0.056874,0.056874,0.056874,0.056874,0.056874,0.056874,0.056874,0.056874,0.056875,0.056875,0.056875,0.056875,0.056875,0.056875,0.056875,0.056875,0.056875,0.056876,0.056876,0.056876,0.056876,0.056876,0.056876,0.056876,0.056876,0.056876,0.056877,0.056877,0.056877,0.056877,0.056877,0.056877,0.056877,0.056877,0.056877,0.056877,0.056878,0.056878,0.056878,0.056878,0.056878,0.056878,0.056878,0.056878,0.056878,0.056879,0.056879,0.056879,0.056879,0.056879,0.056879,0.056879,0.056879,0.056879,0.05688,0.05688,0.05688,0.05688,0.05688,0.05688,0.05688,0.05688,0.05688,0.056881,0.056881,0.056881,0.056881,0.056881,0.056881,0.056881,0.056881,0.056881,0.056882,0.056882,0.056882,0.056882,0.056882,0.056882,0.056882,0.056882,0.056882,0.056883,0.056883,0.056883,0.056883,0.056883,0.056883,0.056883,0.056883,0.056883,0.056884,0.056884,0.056884,0.056884,0.056884,0.056884,0.056884,0.056884,0.056884,0.056884,0.056885,0.056885,0.056885,0.056885,0.056885,0.056885,0.056885,0.056885,0.056885,0.056886,0.056886,0.056886,0.056886,0.056886,0.056886,0.056886,0.056886,0.056886,0.056887,0.056887,0.056887,0.056887,0.056887,0.056887,0.056887,0.056887,0.056887,0.056888,0.056888,0.056888,0.056888,0.056888,0.056888,0.056888,0.056888,0.056888,0.056889,0.056889,0.056889,0.056889,0.056889,0.056889,0.056889,0.056889,0.056889,0.05689,0.05689,0.05689,0.05689,0.05689,0.05689,0.05689,0.05689,0.05689,0.05689,0.056891,0.056891,0.056891,0.056891,0.056891,0.056891,0.056891,0.056891,0.056891,0.056892,0.056892,0.056892,0.056892,0.056892,0.056892,0.056892,0.056892,0.056892,0.056893,0.056893,0.056893,0.056893,0.056893,0.056893,0.056893,0.056893,0.056893,0.056894,0.056894,0.056894,0.056894,0.056894,0.056894,0.056894,0.056894,0.056894,0.056895,0.056895,0.056895,0.056895,0.056895,0.056895,0.056895,0.056895,0.056895,0.056896,0.056896,0.056896,0.056896,0.056896,0.056896,0.056896,0.056896,0.056896,0.056897,0.056897,0.056897,0.056897,0.056897,0.056897,0.056897,0.056897,0.056897,0.056897,0.056898,0.056898,0.056898,0.056898,0.056898,0.056898,0.056898,0.056898,0.056898,0.056899,0.056899,0.056899,0.056899,0.056899,0.056899,0.056899,0.056899,0.056899,0.0569,0.0569,0.0569,0.0569,0.0569,0.0569,0.0569,0.0569,0.0569,0.056901,0.056901,0.056901,0.056901,0.056901,0.056901,0.056901,0.056901,0.056901,0.056902,0.056902,0.056902,0.056902,0.056902,0.056902,0.056902,0.056902,0.056902,0.056903,0.056903,0.056903,0.056903,0.056903,0.056903,0.056903,0.056903,0.056903,0.056903,0.056904,0.056904,0.056904,0.056904,0.056904,0.056904,0.056904,0.056904,0.056904,0.056905,0.056905,0.056905,0.056905,0.056905,0.056905,0.056905,0.056905,0.056905,0.056906,0.056906,0.056906,0.056906,0.056906,0.056906,0.056906,0.056906,0.056906,0.056907,0.056907,0.056907,0.056907,0.056907,0.056907,0.056907,0.056907,0.056907,0.056908,0.056908,0.056908,0.056908,0.056908,0.056908,0.056908,0.056908,0.056908,0.056909,0.056909,0.056909,0.056909,0.056909,0.056909,0.056909,0.056909,0.056909,0.05691,0.05691,0.05691,0.05691,0.05691,0.05691,0.05691,0.05691,0.05691,0.05691,0.056911,0.056911,0.056911,0.056911,0.056911,0.056911,0.056911,0.056911,0.056911,0.056912,0.056912,0.056912,0.056912,0.056912,0.056912,0.056912,0.056912,0.056912,0.056913,0.056913,0.056913,0.056913,0.056913,0.056913,0.056913,0.056913,0.056913,0.056914,0.056914,0.056914,0.056914,0.056914,0.056914,0.056914,0.056914,0.056914,0.056915,0.056915,0.056915,0.056915,0.056915,0.056915,0.056915,0.056915,0.056915,0.056916,0.056916,0.056916,0.056916,0.056916,0.056916,0.056916,0.056916,0.056916,0.056917,0.056917,0.056917,0.056917,0.056917,0.056917,0.056917,0.056917,0.056917,0.056917,0.056918,0.056918,0.056918,0.056918,0.056918,0.056918,0.056918,0.056918,0.056918,0.056919,0.056919,0.056919,0.056919,0.056919,0.056919,0.056919,0.056919,0.056919,0.05692,0.05692,0.05692,0.05692,0.05692,0.05692,0.05692,0.05692,0.05692,0.056921,0.056921,0.056921,0.056921,0.056921,0.056921,0.056921,0.056921,0.056921,0.056922,0.056922,0.056922,0.056922,0.056922,0.056922,0.056922,0.056922,0.056922,0.056923,0.056923,0.056923,0.056923,0.056923,0.056923,0.056923,0.056923,0.056923,0.056923,0.056924,0.056924,0.056924,0.056924,0.056924,0.056924,0.056924,0.056924,0.056924,0.056925,0.056925,0.056925,0.056925,0.056925,0.056925,0.056925,0.056925,0.056925,0.056926,0.056926,0.056926,0.056926,0.056926,0.056926,0.056926,0.056926,0.056926,0.056927,0.056927,0.056927,0.056927,0.056927,0.056927,0.056927,0.056927,0.056927,0.056928,0.056928,0.056928,0.056928,0.056928,0.056928,0.056928,0.056928,0.056928,0.056929,0.056929,0.056929,0.056929,0.056929,0.056929,0.056929,0.056929,0.056929,0.05693,0.05693,0.05693,0.05693,0.05693,0.05693,0.05693,0.05693,0.05693,0.05693,0.056931,0.056931,0.056931,0.056931,0.056931,0.056931,0.056931,0.056931,0.056931,0.056932,0.056932,0.056932,0.056932,0.056932,0.056932,0.056932,0.056932,0.056932,0.056933,0.056933,0.056933,0.056933,0.056933,0.056933,0.056933,0.056933,0.056933,0.056934,0.056934,0.056934,0.056934,0.056934,0.056934,0.056934,0.056934,0.056934,0.056935,0.056935,0.056935,0.056935,0.056935,0.056935,0.056935,0.056935,0.056935,0.056936,0.056936,0.056936,0.056936,0.056936,0.056936,0.056936,0.056936,0.056936,0.056936,0.056937,0.056937,0.056937,0.056937,0.056937,0.056937,0.056937,0.056937,0.056937,0.056938,0.056938,0.056938,0.056938,0.056938,0.056938,0.056938,0.056938,0.056938,0.056939,0.056939,0.056939,0.056939,0.056939,0.056939,0.056939,0.056939,0.056939,0.05694,0.05694,0.05694,0.05694,0.05694,0.05694,0.05694,0.05694,0.05694,0.056941,0.056941,0.056941,0.056941,0.056941,0.056941,0.056941,0.056941,0.056941,0.056942,0.056942,0.056942,0.056942,0.056942,0.056942,0.056942,0.056942,0.056942,0.056943,0.056943,0.056943,0.056943,0.056943,0.056943,0.056943,0.056943,0.056943,0.056943,0.056944,0.056944,0.056944,0.056944,0.056944,0.056944,0.056944,0.056944,0.056944,0.056945,0.056945,0.056945,0.056945,0.056945,0.056945,0.056945,0.056945,0.056945,0.056946,0.056946,0.056946,0.056946,0.056946,0.056946,0.056946,0.056946,0.056946,0.056947,0.056947,0.056947,0.056947,0.056947,0.056947,0.056947,0.056947,0.056947,0.056948,0.056948,0.056948,0.056948,0.056948,0.056948,0.056948,0.056948,0.056948,0.056949,0.056949,0.056949,0.056949,0.056949,0.056949,0.056949,0.056949,0.056949,0.056949,0.05695,0.05695,0.05695,0.05695,0.05695,0.05695,0.05695,0.05695,0.05695,0.056951,0.056951,0.056951,0.056951,0.056951,0.056951,0.056951,0.056951,0.056951,0.056952,0.056952,0.056952,0.056952,0.056952,0.056952,0.056952,0.056952,0.056952,0.056953,0.056953,0.056953,0.056953,0.056953,0.056953,0.056953,0.056953,0.056953,0.056954,0.056954,0.056954,0.056954,0.056954,0.056954,0.056954,0.056954,0.056954,0.056955,0.056955,0.056955,0.056955,0.056955,0.056955,0.056955,0.056955,0.056955,0.056956,0.056956,0.056956,0.056956,0.056956,0.056956,0.056956,0.056956,0.056956,0.056956,0.056957,0.056957,0.056957,0.056957,0.056957,0.056957,0.056957,0.056957,0.056957,0.056958,0.056958,0.056958,0.056958,0.056958,0.056958,0.056958,0.056958,0.056958,0.056959,0.056959,0.056959,0.056959,0.056959,0.056959,0.056959,0.056959,0.056959,0.05696,0.05696,0.05696,0.05696,0.05696,0.05696,0.05696,0.05696,0.05696,0.056961,0.056961,0.056961,0.056961,0.056961,0.056961,0.056961,0.056961,0.056961,0.056962,0.056962,0.056962,0.056962,0.056962,0.056962,0.056962,0.056962,0.056962,0.056962,0.056963,0.056963,0.056963,0.056963,0.056963,0.056963,0.056963,0.056963,0.056963,0.056964,0.056964,0.056964,0.056964,0.056964,0.056964,0.056964,0.056964,0.056964,0.056965,0.056965,0.056965,0.056965,0.056965,0.056965,0.056965,0.056965,0.056965,0.056966,0.056966,0.056966,0.056966,0.056966,0.056966,0.056966,0.056966,0.056966,0.056967,0.056967,0.056967,0.056967,0.056967,0.056967,0.056967,0.056967,0.056967,0.056968,0.056968,0.056968,0.056968,0.056968,0.056968,0.056968,0.056968,0.056968,0.056969,0.056969,0.056969,0.056969,0.056969,0.056969,0.056969,0.056969,0.056969,0.056969,0.05697,0.05697,0.05697,0.05697,0.05697,0.05697,0.05697,0.05697,0.05697,0.056971,0.056971,0.056971,0.056971,0.056971,0.056971,0.056971,0.056971,0.056971,0.056972,0.056972,0.056972,0.056972,0.056972,0.056972,0.056972,0.056972,0.056972,0.056973,0.056973,0.056973,0.056973,0.056973,0.056973,0.056973,0.056973,0.056973,0.056974,0.056974,0.056974,0.056974,0.056974,0.056974,0.056974,0.056974,0.056974,0.056975,0.056975,0.056975,0.056975,0.056975,0.056975,0.056975,0.056975,0.056975,0.056976,0.056976,0.056976,0.056976,0.056976,0.056976,0.056976,0.056976,0.056976,0.056976,0.056977,0.056977,0.056977,0.056977,0.056977,0.056977,0.056977,0.056977,0.056977,0.056978,0.056978,0.056978,0.056978,0.056978,0.056978,0.056978,0.056978,0.056978,0.056979,0.056979,0.056979,0.056979,0.056979,0.056979,0.056979,0.056979,0.056979,0.05698,0.05698,0.05698,0.05698,0.05698,0.05698,0.05698,0.05698,0.05698,0.056981,0.056981,0.056981,0.056981,0.056981,0.056981,0.056981,0.056981,0.056981,0.056982,0.056982,0.056982,0.056982,0.056982,0.056982,0.056982,0.056982,0.056982,0.056982,0.056983,0.056983,0.056983,0.056983,0.056983,0.056983,0.056983,0.056983,0.056983,0.056984,0.056984,0.056984,0.056984,0.056984,0.056984,0.056984,0.056984,0.056984,0.056985,0.056985,0.056985,0.056985,0.056985,0.056985,0.056985,0.056985,0.056985,0.056986,0.056986,0.056986,0.056986,0.056986,0.056986,0.056986,0.056986,0.056986,0.056987,0.056987,0.056987,0.056987,0.056987,0.056987,0.056987,0.056987,0.056987,0.056988,0.056988,0.056988,0.056988,0.056988,0.056988,0.056988,0.056988,0.056988,0.056989,0.056989,0.056989,0.056989,0.056989,0.056989,0.056989,0.056989,0.056989,0.056989,0.05699,0.05699,0.05699,0.05699,0.05699,0.05699,0.05699,0.05699,0.05699,0.056991,0.056991,0.056991,0.056991,0.056991,0.056991,0.056991,0.056991,0.056991,0.056992,0.056992,0.056992,0.056992,0.056992,0.056992,0.056992,0.056992,0.056992,0.056993,0.056993,0.056993,0.056993,0.056993,0.056993,0.056993,0.056993,0.056993,0.056994,0.056994,0.056994,0.056994,0.056994,0.056994,0.056994,0.056994,0.056994,0.056995,0.056995,0.056995,0.056995,0.056995,0.056995,0.056995,0.056995,0.056995,0.056995,0.056996,0.056996,0.056996,0.056996,0.056996,0.056996,0.056996,0.056996,0.056996,0.056997,0.056997,0.056997,0.056997,0.056997,0.056997,0.056997,0.056997,0.056997,0.056998,0.056998,0.056998,0.056998,0.056998,0.056998,0.056998,0.056998,0.056998,0.056999,0.056999,0.056999,0.056999,0.056999,0.056999,0.056999,0.056999,0.056999,0.057,0.057,0.057,0.057,0.057,0.057,0.057,0.057,0.057,0.057001,0.057001,0.057001,0.057001,0.057001,0.057001,0.057001,0.057001,0.057001,0.057002,0.057002,0.057002,0.057002,0.057002,0.057002,0.057002,0.057002,0.057002,0.057002,0.057003,0.057003,0.057003,0.057003,0.057003,0.057003,0.057003,0.057003,0.057003,0.057004,0.057004,0.057004,0.057004,0.057004,0.057004,0.057004,0.057004,0.057004,0.057005,0.057005,0.057005,0.057005,0.057005,0.057005,0.057005,0.057005,0.057005,0.057006,0.057006,0.057006,0.057006,0.057006,0.057006,0.057006,0.057006,0.057006,0.057007,0.057007,0.057007,0.057007,0.057007,0.057007,0.057007,0.057007,0.057007,0.057008,0.057008,0.057008,0.057008,0.057008,0.057008,0.057008,0.057008,0.057008,0.057008,0.057009,0.057009,0.057009,0.057009,0.057009,0.057009,0.057009,0.057009,0.057009,0.05701,0.05701,0.05701,0.05701,0.05701,0.05701,0.05701,0.05701,0.05701,0.057011,0.057011,0.057011,0.057011,0.057011,0.057011,0.057011,0.057011,0.057011,0.057012,0.057012,0.057012,0.057012,0.057012,0.057012,0.057012,0.057012,0.057012,0.057013,0.057013,0.057013,0.057013,0.057013,0.057013,0.057013,0.057013,0.057013,0.057014,0.057014,0.057014,0.057014,0.057014,0.057014,0.057014,0.057014,0.057014,0.057015,0.057015,0.057015,0.057015,0.057015,0.057015,0.057015,0.057015,0.057015,0.057015,0.057016,0.057016,0.057016,0.057016,0.057016,0.057016,0.057016,0.057016,0.057016,0.057017,0.057017,0.057017,0.057017,0.057017,0.057017,0.057017,0.057017,0.057017,0.057018,0.057018,0.057018,0.057018,0.057018,0.057018,0.057018,0.057018,0.057018,0.057019,0.057019,0.057019,0.057019,0.057019,0.057019,0.057019,0.057019,0.057019,0.05702,0.05702,0.05702,0.05702,0.05702,0.05702,0.05702,0.05702,0.05702,0.057021,0.057021,0.057021,0.057021,0.057021,0.057021,0.057021,0.057021,0.057021,0.057021,0.057022,0.057022,0.057022,0.057022,0.057022,0.057022,0.057022,0.057022,0.057022,0.057023,0.057023,0.057023,0.057023,0.057023,0.057023,0.057023,0.057023,0.057023,0.057024,0.057024,0.057024,0.057024,0.057024,0.057024,0.057024,0.057024,0.057024,0.057025,0.057025,0.057025,0.057025,0.057025,0.057025,0.057025,0.057025,0.057025,0.057026,0.057026,0.057026,0.057026,0.057026,0.057026,0.057026,0.057026,0.057026,0.057027,0.057027,0.057027,0.057027,0.057027,0.057027,0.057027,0.057027,0.057027,0.057028,0.057028,0.057028,0.057028,0.057028,0.057028,0.057028,0.057028,0.057028,0.057028,0.057029,0.057029,0.057029,0.057029,0.057029,0.057029,0.057029,0.057029,0.057029,0.05703,0.05703,0.05703,0.05703,0.05703,0.05703,0.05703,0.05703,0.05703,0.057031,0.057031,0.057031,0.057031,0.057031,0.057031,0.057031,0.057031,0.057031,0.057032,0.057032,0.057032,0.057032,0.057032,0.057032,0.057032,0.057032,0.057032,0.057033,0.057033,0.057033,0.057033,0.057033,0.057033,0.057033,0.057033,0.057033,0.057034,0.057034,0.057034,0.057034,0.057034,0.057034,0.057034,0.057034,0.057034,0.057035,0.057035,0.057035,0.057035,0.057035,0.057035,0.057035,0.057035,0.057035,0.057035,0.057036,0.057036,0.057036,0.057036,0.057036,0.057036,0.057036,0.057036,0.057036,0.057037,0.057037,0.057037,0.057037,0.057037,0.057037,0.057037,0.057037,0.057037,0.057038,0.057038,0.057038,0.057038,0.057038,0.057038,0.057038,0.057038,0.057038,0.057039,0.057039,0.057039,0.057039,0.057039,0.057039,0.057039,0.057039,0.057039,0.05704,0.05704,0.05704,0.05704,0.05704,0.05704,0.05704,0.05704,0.05704,0.057041,0.057041,0.057041,0.057041,0.057041,0.057041,0.057041,0.057041,0.057041,0.057041,0.057042,0.057042,0.057042,0.057042,0.057042,0.057042,0.057042,0.057042,0.057042,0.057043,0.057043,0.057043,0.057043,0.057043,0.057043,0.057043,0.057043,0.057043,0.057044,0.057044,0.057044,0.057044,0.057044,0.057044,0.057044,0.057044,0.057044,0.057045,0.057045,0.057045,0.057045,0.057045,0.057045,0.057045,0.057045,0.057045,0.057046,0.057046,0.057046,0.057046,0.057046,0.057046,0.057046,0.057046,0.057046,0.057047,0.057047,0.057047,0.057047,0.057047,0.057047,0.057047,0.057047,0.057047,0.057048,0.057048,0.057048,0.057048,0.057048,0.057048,0.057048,0.057048,0.057048,0.057048,0.057049,0.057049,0.057049,0.057049,0.057049,0.057049,0.057049,0.057049,0.057049,0.05705,0.05705,0.05705,0.05705,0.05705,0.05705,0.05705,0.05705,0.05705,0.057051,0.057051,0.057051,0.057051,0.057051,0.057051,0.057051,0.057051,0.057051,0.057052,0.057052,0.057052,0.057052,0.057052,0.057052,0.057052,0.057052,0.057052,0.057053,0.057053,0.057053,0.057053,0.057053,0.057053,0.057053,0.057053,0.057053,0.057054,0.057054,0.057054,0.057054,0.057054,0.057054,0.057054,0.057054,0.057054,0.057054,0.057055,0.057055,0.057055,0.057055,0.057055,0.057055,0.057055,0.057055,0.057055,0.057056,0.057056,0.057056,0.057056,0.057056,0.057056,0.057056,0.057056,0.057056,0.057057,0.057057,0.057057,0.057057,0.057057,0.057057,0.057057,0.057057,0.057057,0.057058,0.057058,0.057058,0.057058,0.057058,0.057058,0.057058,0.057058,0.057058,0.057059,0.057059,0.057059,0.057059,0.057059,0.057059,0.057059,0.057059,0.057059,0.05706,0.05706,0.05706,0.05706,0.05706,0.05706,0.05706,0.05706,0.05706,0.057061,0.057061,0.057061,0.057061,0.057061,0.057061,0.057061,0.057061,0.057061,0.057061,0.057062,0.057062,0.057062,0.057062,0.057062,0.057062,0.057062,0.057062,0.057062,0.057063,0.057063,0.057063,0.057063,0.057063,0.057063,0.057063,0.057063,0.057063,0.057064,0.057064,0.057064,0.057064,0.057064,0.057064,0.057064,0.057064,0.057064,0.057065,0.057065,0.057065,0.057065,0.057065,0.057065,0.057065,0.057065,0.057065,0.057066,0.057066,0.057066,0.057066,0.057066,0.057066,0.057066,0.057066,0.057066,0.057067,0.057067,0.057067,0.057067,0.057067,0.057067,0.057067,0.057067,0.057067,0.057067,0.057068,0.057068,0.057068,0.057068,0.057068,0.057068,0.057068,0.057068,0.057068,0.057069,0.057069,0.057069,0.057069,0.057069,0.057069,0.057069,0.057069,0.057069,0.05707,0.05707,0.05707,0.05707,0.05707,0.05707,0.05707,0.05707,0.05707,0.057071,0.057071,0.057071,0.057071,0.057071,0.057071,0.057071,0.057071,0.057071,0.057072,0.057072,0.057072,0.057072,0.057072,0.057072,0.057072,0.057072,0.057072,0.057073,0.057073,0.057073,0.057073,0.057073,0.057073,0.057073,0.057073,0.057073,0.057074,0.057074,0.057074,0.057074,0.057074,0.057074,0.057074,0.057074,0.057074,0.057074,0.057075,0.057075,0.057075,0.057075,0.057075,0.057075,0.057075,0.057075,0.057075,0.057076,0.057076,0.057076,0.057076,0.057076,0.057076,0.057076,0.057076,0.057076,0.057077,0.057077,0.057077,0.057077,0.057077,0.057077,0.057077,0.057077,0.057077,0.057078,0.057078,0.057078,0.057078,0.057078,0.057078,0.057078,0.057078,0.057078,0.057079,0.057079,0.057079,0.057079,0.057079,0.057079,0.057079,0.057079,0.057079,0.05708,0.05708,0.05708,0.05708,0.05708,0.05708,0.05708,0.05708,0.05708,0.057081,0.057081,0.057081,0.057081,0.057081,0.057081,0.057081,0.057081,0.057081,0.057081,0.057082,0.057082,0.057082,0.057082,0.057082,0.057082,0.057082,0.057082,0.057082,0.057083,0.057083,0.057083,0.057083,0.057083,0.057083,0.057083,0.057083,0.057083,0.057084,0.057084,0.057084,0.057084,0.057084,0.057084,0.057084,0.057084,0.057084,0.057085,0.057085,0.057085,0.057085,0.057085,0.057085,0.057085,0.057085,0.057085,0.057086,0.057086,0.057086,0.057086,0.057086,0.057086,0.057086,0.057086,0.057086,0.057087,0.057087,0.057087,0.057087,0.057087,0.057087,0.057087,0.057087,0.057087,0.057087,0.057088,0.057088,0.057088,0.057088,0.057088,0.057088,0.057088,0.057088,0.057088,0.057089,0.057089,0.057089
0.10392,0.10379,0.10365,0.10352,0.10339,0.10325,0.10312,0.10299,0.10286,0.10272,0.10259,0.10246,0.10233,0.1022,0.10207,0.10194,0.10181,0.10168,0.10154,0.10141,0.10128,0.10115,0.10103,0.1009,0.10077,0.10064,0.10051,0.10038,0.10025,0.10012,0.099995,0.099867,0.099739,0.099612,0.099484,0.099357,0.09923,0.099103,0.098977,0.09885,0.098724,0.098598,0.098472,0.098346,0.09822,0.098095,0.09797,0.097844,0.09772,0.097595,0.09747,0.097346,0.097222,0.097098,0.096974,0.09685,0.096727,0.096604,0.096481,0.096358,0.096235,0.096112,0.09599,0.095868,0.095746,0.095624,0.095502,0.095381,0.09526,0.095138,0.095018,0.094897,0.094776,0.094656,0.094536,0.094415,0.094296,0.094176,0.094056,0.093937,0.093818,0.093699,0.09358,0.093461,0.093343,0.093225,0.093106,0.092988,0.092871,0.092753,0.092636,0.092518,0.092401,0.092284,0.092168,0.092051,0.091935,0.091819,0.091703,0.091587,0.091471,0.091356,0.09124,0.091125,0.09101,0.090895,0.090781,0.090666,0.090552,0.090438,0.090324,0.09021,0.090096,0.089983,0.08987,0.089757,0.089644,0.089531,0.089418,0.089306,0.089194,0.089082,0.08897,0.088858,0.088746,0.088635,0.088524,0.088413,0.088302,0.088191,0.088081,0.08797,0.08786,0.08775,0.08764,0.087531,0.087421,0.087312,0.087203,0.087094,0.086985,0.086876,0.086768,0.086659,0.086551,0.086443,0.086335,0.086228,0.08612,0.086013,0.085906,0.085799,0.085692,0.085585,0.085479,0.085372,0.085266,0.08516,0.085054,0.084949,0.084843,0.084738,0.084633,0.084528,0.084423,0.084318,0.084214,0.08411,0.084005,0.083901,0.083798,0.083694,0.08359,0.083487,0.083384,0.083281,0.083178,0.083075,0.082973,0.082871,0.082768,0.082666,0.082564,0.082463,0.082361,0.08226,0.082159,0.082058,0.081957,0.081856,0.081755,0.081655,0.081555,0.081455,0.081355,0.081255,0.081155,0.081056,0.080957,0.080858,0.080759,0.08066,0.080561,0.080463,0.080364,0.080266,0.080168,0.080071,0.079973,0.079875,0.079778,0.079681,0.079584,0.079487,0.07939,0.079294,0.079197,0.079101,0.079005,0.078909,0.078813,0.078718,0.078622,0.078527,0.078432,0.078337,0.078242,0.078148,0.078053,0.077959,0.077865,0.077771,0.077677,0.077583,0.077489,0.077396,0.077303,0.07721,0.077117,0.077024,0.076931,0.076839,0.076747,0.076654,0.076562,0.076471,0.076379,0.076287,0.076196,0.076105,0.076014,0.075923,0.075832,0.075742,0.075651,0.075561,0.075471,0.075381,0.075291,0.075201,0.075112,0.075022,0.074933,0.074844,0.074755,0.074666,0.074578,0.074489,0.074401,0.074313,0.074225,0.074137,0.074049,0.073962,0.073874,0.073787,0.0737,0.073613,0.073526,0.07344,0.073353,0.073267,0.073181,0.073095,0.073009,0.072923,0.072837,0.072752,0.072667,0.072582,0.072497,0.072412,0.072327,0.072242,0.072158,0.072074,0.07199,0.071906,0.071822,0.071738,0.071655,0.071571,0.071488,0.071405,0.071322,0.07124,0.071157,0.071074,0.070992,0.07091,0.070828,0.070746,0.070664,0.070583,0.070501,0.07042,0.070339,0.070258,0.070177,0.070096,0.070016,0.069935,0.069855,0.069775,0.069695,0.069615,0.069535,0.069456,0.069376,0.069297,0.069218,0.069139,0.06906,0.068981,0.068903,0.068824,0.068746,0.068668,0.06859,0.068512,0.068434,0.068357,0.068279,0.068202,0.068125,0.068048,0.067971,0.067894,0.067818,0.067742,0.067665,0.067589,0.067513,0.067437,0.067362,0.067286,0.067211,0.067135,0.06706,0.066985,0.06691,0.066835,0.066761,0.066686,0.066612,0.066538,0.066464,0.06639,0.066316,0.066243,0.066169,0.066096,0.066023,0.065949,0.065877,0.065804,0.065731,0.065659,0.065586,0.065514,0.065442,0.06537,0.065298,0.065226,0.065155,0.065083,0.065012,0.064941,0.06487,0.064799,0.064728,0.064658,0.064587,0.064517,0.064447,0.064377,0.064307,0.064237,0.064167,0.064098,0.064028,0.063959,0.06389,0.063821,0.063752,0.063683,0.063615,0.063546,0.063478,0.06341,0.063342,0.063274,0.063206,0.063139,0.063071,0.063004,0.062936,0.062869,0.062802,0.062735,0.062669,0.062602,0.062536,0.062469,0.062403,0.062337,0.062271,0.062205,0.06214,0.062074,0.062009,0.061943,0.061878,0.061813,0.061748,0.061684,0.061619,0.061554,0.06149,0.061426,0.061362,0.061298,0.061234,0.06117,0.061107,0.061043,0.06098,0.060917,0.060853,0.060791,0.060728,0.060665,0.060602,0.06054,0.060478,0.060415,0.060353,0.060291,0.06023,0.060168,0.060106,0.060045,0.059984,0.059923,0.059861,0.059801,0.05974,0.059679,0.059619,0.059558,0.059498,0.059438,0.059378,0.059318,0.059258,0.059198,0.059139,0.059079,0.05902,0.058961,0.058902,0.058843,0.058784,0.058725,0.058667,0.058608,0.05855,0.058492,0.058434,0.058376,0.058318,0.05826,0.058203,0.058145,0.058088,0.058031,0.057974,0.057917,0.05786,0.057803,0.057746,0.05769,0.057634,0.057577,0.057521,0.057465,0.057409,0.057354,0.057298,0.057242,0.057187,0.057132,0.057077,0.057022,0.056967,0.056912,0.056857,0.056803,0.056748,0.056694,0.05664,0.056586,0.056532,0.056478,0.056424,0.05637,0.056317,0.056264,0.05621,0.056157,0.056104,0.056051,0.055998,0.055946,0.055893,0.055841,0.055788,0.055736,0.055684,0.055632,0.05558,0.055528,0.055477,0.055425,0.055374,0.055323,0.055271,0.05522,0.055169,0.055119,0.055068,0.055017,0.054967,0.054917,0.054866,0.054816,0.054766,0.054716,0.054666,0.054617,0.054567,0.054518,0.054468,0.054419,0.05437,0.054321,0.054272,0.054223,0.054175,0.054126,0.054078,0.054029,0.053981,0.053933,0.053885,0.053837,0.053789,0.053742,0.053694,0.053647,0.053599,0.053552,0.053505,0.053458,0.053411,0.053364,0.053318,0.053271,0.053225,0.053178,0.053132,0.053086,0.05304,0.052994,0.052948,0.052903,0.052857,0.052811,0.052766,0.052721,0.052676,0.052631,0.052586,0.052541,0.052496,0.052452,0.052407,0.052363,0.052318,0.052274,0.05223,0.052186,0.052142,0.052099,0.052055,0.052011,0.051968,0.051925,0.051881,0.051838,0.051795,0.051752,0.05171,0.051667,0.051624,0.051582,0.051539,0.051497,0.051455,0.051413,0.051371,0.051329,0.051287,0.051246,0.051204,0.051163,0.051121,0.05108,0.051039,0.050998,0.050957,0.050916,0.050875,0.050835,0.050794,0.050754,0.050714,0.050673,0.050633,0.050593,0.050553,0.050514,0.050474,0.050434,0.050395,0.050355,0.050316,0.050277,0.050238,0.050199,0.05016,0.050121,0.050082,0.050044,0.050005,0.049967,0.049929,0.04989,0.049852,0.049814,0.049776,0.049739,0.049701,0.049663,0.049626,0.049588,0.049551,0.049514,0.049477,0.04944,0.049403,0.049366,0.049329,0.049293,0.049256,0.04922,0.049183,0.049147,0.049111,0.049075,0.049039,0.049003,0.048967,0.048932,0.048896,0.048861,0.048825,0.04879,0.048755,0.04872,0.048685,0.04865,0.048615,0.04858,0.048546,0.048511,0.048477,0.048442,0.048408,0.048374,0.04834,0.048306,0.048272,0.048238,0.048205,0.048171,0.048138,0.048104,0.048071,0.048038,0.048005,0.047972,0.047939,0.047906,0.047873,0.04784,0.047808,0.047775,0.047743,0.047711,0.047679,0.047646,0.047614,0.047582,0.047551,0.047519,0.047487,0.047456,0.047424,0.047393,0.047362,0.04733,0.047299,0.047268,0.047237,0.047207,0.047176,0.047145,0.047115,0.047084,0.047054,0.047023,0.046993,0.046963,0.046933,0.046903,0.046873,0.046843,0.046814,0.046784,0.046755,0.046725,0.046696,0.046667,0.046637,0.046608,0.046579,0.046551,0.046522,0.046493,0.046464,0.046436,0.046407,0.046379,0.046351,0.046322,0.046294,0.046266,0.046238,0.04621,0.046183,0.046155,0.046127,0.0461,0.046072,0.046045,0.046018,0.045991,0.045964,0.045937,0.04591,0.045883,0.045856,0.045829,0.045803,0.045776,0.04575,0.045723,0.045697,0.045671,0.045645,0.045619,0.045593,0.045567,0.045541,0.045516,0.04549,0.045464,0.045439,0.045414,0.045388,0.045363,0.045338,0.045313,0.045288,0.045263,0.045238,0.045214,0.045189,0.045165,0.04514,0.045116,0.045091,0.045067,0.045043,0.045019,0.044995,0.044971,0.044947,0.044924,0.0449,0.044876,0.044853,0.044829,0.044806,0.044783,0.044759,0.044736,0.044713,0.04469,0.044668,0.044645,0.044622,0.044599,0.044577,0.044554,0.044532,0.04451,0.044487,0.044465,0.044443,0.044421,0.044399,0.044377,0.044355,0.044334,0.044312,0.04429,0.044269,0.044247,0.044226,0.044205,0.044184,0.044163,0.044141,0.044121,0.0441,0.044079,0.044058,0.044037,0.044017,0.043996,0.043976,0.043955,0.043935,0.043915,0.043895,0.043875,0.043855,0.043835,0.043815,0.043795,0.043775,0.043756,0.043736,0.043717,0.043697,0.043678,0.043659,0.04364,0.04362,0.043601,0.043582,0.043564,0.043545,0.043526,0.043507,0.043489,0.04347,0.043452,0.043433,0.043415,0.043397,0.043378,0.04336,0.043342,0.043324,0.043306,0.043288,0.043271,0.043253,0.043235,0.043218,0.0432,0.043183,0.043166,0.043148,0.043131,0.043114,0.043097,0.04308,0.043063,0.043046,0.043029,0.043012,0.042996,0.042979,0.042963,0.042946,0.04293,0.042913,0.042897,0.042881,0.042865,0.042849,0.042833,0.042817,0.042801,0.042785,0.04277,0.042754,0.042738,0.042723,0.042707,0.042692,0.042677,0.042661,0.042646,0.042631,0.042616,0.042601,0.042586,0.042571,0.042557,0.042542,0.042527,0.042513,0.042498,0.042484,0.042469,0.042455,0.042441,0.042426,0.042412,0.042398,0.042384,0.04237,0.042356,0.042342,0.042329,0.042315,0.042301,0.042288,0.042274,0.042261,0.042247,0.042234,0.042221,0.042208,0.042195,0.042181,0.042168,0.042156,0.042143,0.04213,0.042117,0.042104,0.042092,0.042079,0.042067,0.042054,0.042042,0.042029,0.042017,0.042005,0.041993,0.041981,0.041969,0.041957,0.041945,0.041933,0.041921,0.04191,0.041898,0.041886,0.041875,0.041863,0.041852,0.04184,0.041829,0.041818,0.041807,0.041796,0.041785,0.041774,0.041763,0.041752,0.041741,0.04173,0.041719,0.041709,0.041698,0.041688,0.041677,0.041667,0.041656,0.041646,0.041636,0.041626,0.041615,0.041605,0.041595,0.041585,0.041576,0.041566,0.041556,0.041546,0.041536,0.041527,0.041517,0.041508,0.041498,0.041489,0.04148,0.04147,0.041461,0.041452,0.041443,0.041434,0.041425,0.041416,0.041407,0.041398,0.041389,0.04138,0.041372,0.041363,0.041355,0.041346,0.041338,0.041329,0.041321,0.041313,0.041304,0.041296,0.041288,0.04128,0.041272,0.041264,0.041256,0.041248,0.04124,0.041233,0.041225,0.041217,0.04121,0.041202,0.041195,0.041187,0.04118,0.041172,0.041165,0.041158,0.041151,0.041144,0.041137,0.04113,0.041123,0.041116,0.041109,0.041102,0.041095,0.041088,0.041082,0.041075,0.041069,0.041062,0.041056,0.041049,0.041043,0.041037,0.04103,0.041024,0.041018,0.041012,0.041006,0.041,0.040994,0.040988,0.040982,0.040976,0.040971,0.040965,0.040959,0.040954,0.040948,0.040943,0.040937,0.040932,0.040926,0.040921,0.040916,0.040911,0.040905,0.0409,0.040895,0.04089,0.040885,0.04088,0.040875,0.040871,0.040866,0.040861,0.040856,0.040852,0.040847,0.040843,0.040838,0.040834,0.040829,0.040825,0.040821,0.040816,0.040812,0.040808,0.040804,0.0408,0.040796,0.040792,0.040788,0.040784,0.04078,0.040776,0.040772,0.040769,0.040765,0.040761,0.040758,0.040754,0.040751,0.040747,0.040744,0.040741,0.040737,0.040734,0.040731,0.040728,0.040725,0.040722,0.040719,0.040716,0.040713,0.04071,0.040707,0.040704,0.040701,0.040699,0.040696,0.040693,0.040691,0.040688,0.040686,0.040683,0.040681,0.040678,0.040676,0.040674,0.040672,0.040669,0.040667,0.040665,0.040663,0.040661,0.040659,0.040657,0.040655,0.040653,0.040651,0.04065,0.040648,0.040646,0.040645,0.040643,0.040641,0.04064,0.040638,0.040637,0.040636,0.040634,0.040633,0.040632,0.04063,0.040629,0.040628,0.040627,0.040626,0.040625,0.040624,0.040623,0.040622,0.040621,0.04062,0.04062,0.040619,0.040618,0.040617,0.040617,0.040616,0.040616,0.040615,0.040615,0.040614,0.040614,0.040614,0.040613,0.040613,0.040613,0.040613,0.040612,0.040612,0.040612,0.040612,0.040612,0.040612,0.040612,0.040612,0.040613,0.040613,0.040613,0.040613,0.040614,0.040614,0.040614,0.040615,0.040615,0.040616,0.040616,0.040617,0.040617,0.040618,0.040619,0.040619,0.04062,0.040621,0.040622,0.040623,0.040624,0.040625,0.040626,0.040627,0.040628,0.040629,0.04063,0.040631,0.040632,0.040634,0.040635,0.040636,0.040637,0.040639,0.04064,0.040642,0.040643,0.040645,0.040646,0.040648,0.04065,0.040651,0.040653,0.040655,0.040657,0.040658,0.04066,0.040662,0.040664,0.040666,0.040668,0.04067,0.040672,0.040674,0.040676,0.040678,0.040681,0.040683,0.040685,0.040687,0.04069,0.040692,0.040695,0.040697,0.0407,0.040702,0.040705,0.040707,0.04071,0.040712,0.040715,0.040718,0.040721,0.040723,0.040726,0.040729,0.040732,0.040735,0.040738,0.040741,0.040744,0.040747,0.04075,0.040753,0.040756,0.040759,0.040763,0.040766,0.040769,0.040772,0.040776,0.040779,0.040783,0.040786,0.040789,0.040793,0.040796,0.0408,0.040804,0.040807,0.040811,0.040815,0.040818,0.040822,0.040826,0.04083,0.040834,0.040838,0.040841,0.040845,0.040849,0.040853,0.040857,0.040862,0.040866,0.04087,0.040874,0.040878,0.040882,0.040887,0.040891,0.040895,0.0409,0.040904,0.040908,0.040913,0.040917,0.040922,0.040926,0.040931,0.040936,0.04094,0.040945,0.04095,0.040954,0.040959,0.040964,0.040969,0.040973,0.040978,0.040983,0.040988,0.040993,0.040998,0.041003,0.041008,0.041013,0.041018,0.041024,0.041029,0.041034,0.041039,0.041044,0.04105,0.041055,0.04106,0.041066,0.041071,0.041077,0.041082,0.041087,0.041093,0.041099,0.041104,0.04111,0.041115,0.041121,0.041127,0.041132,0.041138,0.041144,0.04115,0.041156,0.041161,0.041167,0.041173,0.041179,0.041185,0.041191,0.041197,0.041203,0.041209,0.041215,0.041222,0.041228,0.041234,0.04124,0.041246,0.041253,0.041259,0.041265,0.041272,0.041278,0.041284,0.041291,0.041297,0.041304,0.04131,0.041317,0.041323,0.04133,0.041337,0.041343,0.04135,0.041357,0.041364,0.04137,0.041377,0.041384,0.041391,0.041398,0.041405,0.041411,0.041418,0.041425,0.041432,0.041439,0.041446,0.041454,0.041461,0.041468,0.041475,0.041482,0.041489,0.041497,0.041504,0.041511,0.041519,0.041526,0.041533,0.041541,0.041548,0.041556,0.041563,0.04157,0.041578,0.041586,0.041593,0.041601,0.041608,0.041616,0.041624,0.041631,0.041639,0.041647,0.041655,0.041663,0.04167,0.041678,0.041686,0.041694,0.041702,0.04171,0.041718,0.041726,0.041734,0.041742,0.04175,0.041758,0.041766,0.041775,0.041783,0.041791,0.041799,0.041807,0.041816,0.041824,0.041832,0.041841,0.041849,0.041858,0.041866,0.041874,0.041883,0.041891,0.0419,0.041909,0.041917,0.041926,0.041934,0.041943,0.041952,0.04196,0.041969,0.041978,0.041987,0.041995,0.042004,0.042013,0.042022,0.042031,0.04204,0.042049,0.042058,0.042067,0.042076,0.042085,0.042094,0.042103,0.042112,0.042121,0.04213,0.04214,0.042149,0.042158,0.042167,0.042177,0.042186,0.042195,0.042205,0.042214,0.042223,0.042233,0.042242,0.042252,0.042261,0.042271,0.04228,0.04229,0.0423,0.042309,0.042319,0.042328,0.042338,0.042348,0.042358,0.042367,0.042377,0.042387,0.042397,0.042407,0.042417,0.042426,0.042436,0.042446,0.042456,0.042466,0.042476,0.042486,0.042496,0.042506,0.042517,0.042527,0.042537,0.042547,0.042557,0.042567,0.042578,0.042588,0.042598,0.042609,0.042619,0.042629,0.04264,0.04265,0.042661,0.042671,0.042682,0.042692,0.042703,0.042713,0.042724,0.042734,0.042745,0.042756,0.042766,0.042777,0.042788,0.042798,0.042809,0.04282,0.042831,0.042842,0.042852,0.042863,0.042874,0.042885,0.042896,0.042907,0.042918,0.042929,0.04294,0.042951,0.042962,0.042973,0.042984,0.042996,0.043007,0.043018,0.043029,0.04304,0.043052,0.043063,0.043074,0.043086,0.043097,0.043108,0.04312,0.043131,0.043143,0.043154,0.043166,0.043177,0.043189,0.0432,0.043212,0.043223,0.043235,0.043247,0.043258,0.04327,0.043282,0.043294,0.043305,0.043317,0.043329,0.043341,0.043353,0.043364,0.043376,0.043388,0.0434,0.043412,0.043424,0.043436,0.043448,0.04346,0.043472,0.043485,0.043497,0.043509,0.043521,0.043533,0.043545,0.043558,0.04357,0.043582,0.043595,0.043607,0.043619,0.043632,0.043644,0.043657,0.043669,0.043682,0.043694,0.043707,0.043719,0.043732,0.043744,0.043757,0.04377,0.043782,0.043795,0.043808,0.04382,0.043833,0.043846,0.043859,0.043872,0.043884,0.043897,0.04391,0.043923,0.043936,0.043949,0.043962,0.043975,0.043988,0.044001,0.044014,0.044027,0.04404,0.044054,0.044067,0.04408,0.044093,0.044106,0.04412,0.044133,0.044146,0.04416,0.044173,0.044186,0.0442,0.044213,0.044227,0.04424,0.044254,0.044267,0.044281,0.044294,0.044308,0.044322,0.044335,0.044349,0.044363,0.044376,0.04439,0.044404,0.044418,0.044432,0.044445,0.044459,0.044473,0.044487,0.044501,0.044515,0.044529,0.044543,0.044557,0.044571,0.044585,0.044599,0.044613,0.044628,0.044642,0.044656,0.04467,0.044684,0.044699,0.044713,0.044727,0.044742,0.044756,0.04477,0.044785,0.044799,0.044814,0.044828,0.044843,0.044857,0.044872,0.044887,0.044901,0.044916,0.044931,0.044945,0.04496,0.044975,0.04499,0.045004,0.045019,0.045034,0.045049,0.045064,0.045079,0.045094,0.045109,0.045124,0.045139,0.045154,0.045169,0.045184,0.045199,0.045214,0.045229,0.045245,0.04526,0.045275,0.04529,0.045306,0.045321,0.045336,0.045352,0.045367,0.045383,0.045398,0.045414,0.045429,0.045445,0.04546,0.045476,0.045491,0.045507,0.045523,0.045538,0.045554,0.04557,0.045586,0.045601,0.045617,0.045633,0.045649,0.045665,0.045681,0.045697,0.045713,0.045729,0.045745,0.045761,0.045777,0.045793,0.045809,0.045825,0.045842,0.045858,0.045874,0.04589,0.045907,0.045923,0.04594,0.045956,0.045972,0.045989,0.046005,0.046022,0.046038,0.046055,0.046071,0.046088,0.046105,0.046121,0.046138,0.046155,0.046172,0.046188,0.046205,0.046222,0.046239,0.046256,0.046273,0.04629,0.046307,0.046324,0.046341,0.046358,0.046375,0.046392,0.046409,0.046426,0.046444,0.046461,0.046478,0.046495,0.046513,0.04653,0.046547,0.046565,0.046582,0.0466,0.046617,0.046635,0.046652,0.04667,0.046688,0.046705,0.046723,0.046741,0.046758,0.046776,0.046794,0.046812,0.04683,0.046848,0.046866,0.046883,0.046901,0.046919,0.046938,0.046956,0.046974,0.046992,0.04701,0.047028,0.047046,0.047065,0.047083,0.047101,0.04712,0.047138,0.047156,0.047175,0.047193,0.047212,0.04723,0.047249,0.047268,0.047286,0.047305,0.047324,0.047342,0.047361,0.04738,0.047399,0.047418,0.047437,0.047455,0.047474,0.047493,0.047512,0.047531,0.047551,0.04757,0.047589,0.047608,0.047627,0.047646,0.047666,0.047685,0.047704,0.047724,0.047743,0.047763,0.047782,0.047802,0.047821,0.047841,0.04786,0.04788,0.0479,0.04792,0.047939,0.047959,0.047979,0.047999,0.048019,0.048039,0.048059,0.048079,0.048099,0.048119,0.048139,0.048159,0.048179,0.048199,0.048219,0.04824,0.04826,0.04828,0.048301,0.048321,0.048342,0.048362,0.048383,0.048403,0.048424,0.048444,0.048465,0.048486,0.048507,0.048527,0.048548,0.048569,0.04859,0.048611,0.048632,0.048653,0.048674,0.048695,0.048716,0.048737,0.048758,0.04878,0.048801,0.048822,0.048843,0.048865,0.048886,0.048908,0.048929,0.048951,0.048972,0.048994,0.049016,0.049037,0.049059,0.049081,0.049102,0.049124,0.049146,0.049168,0.04919,0.049212,0.049234,0.049256,0.049278,0.0493,0.049323,0.049345,0.049367,0.049389,0.049412,0.049434,0.049456,0.049479,0.049501,0.049524,0.049547,0.049569,0.049592,0.049615,0.049637,0.04966,0.049683,0.049706,0.049729,0.049752,0.049775,0.049798,0.049821,0.049844,0.049867,0.04989,0.049914,0.049937,0.04996,0.049984,0.050007,0.05003,0.050054,0.050078,0.050101,0.050125,0.050148,0.050172,0.050196,0.05022,0.050244,0.050267,0.050291,0.050315,0.050339,0.050363,0.050388,0.050412,0.050436,0.05046,0.050485,0.050509,0.050533,0.050558,0.050582,0.050607,0.050631,0.050656,0.05068,0.050705,0.05073,0.050755,0.05078,0.050804,0.050829,0.050854,0.050879,0.050904,0.05093,0.050955,0.05098,0.051005,0.05103,0.051056,0.051081,0.051107,0.051132,0.051158,0.051183,0.051209,0.051235,0.05126,0.051286,0.051312,0.051338,0.051364,0.05139,0.051416,0.051442,0.051468,0.051494,0.05152,0.051547,0.051573,0.051599,0.051626,0.051652,0.051679,0.051705,0.051732,0.051759,0.051785,0.051812,0.051839,0.051866,0.051893,0.05192,0.051947,0.051974,0.052001,0.052028,0.052055,0.052083,0.05211,0.052137,0.052165,0.052192,0.05222,0.052247,0.052275,0.052303,0.052331,0.052358,0.052386,0.052414,0.052442,0.05247,0.052498,0.052526,0.052555,0.052583,0.052611,0.052639,0.052668,0.052696,0.052725,0.052753,0.052782,0.052811,0.052839,0.052868,0.052897,0.052926,0.052955,0.052984,0.053013,0.053042,0.053071,0.053101,0.05313,0.053159,0.053189,0.053218,0.053248,0.053277,0.053307,0.053337,0.053366,0.053396,0.053426,0.053456,0.053486,0.053516,0.053546,0.053576,0.053606,0.053637,0.053667,0.053697,0.053728,0.053758,0.053789,0.05382,0.05385,0.053881,0.053912,0.053943,0.053974,0.054005,0.054036,0.054067,0.054098,0.054129,0.054161,0.054192,0.054224,0.054255,0.054287,0.054318,0.05435,0.054382,0.054413,0.054445,0.054477,0.054509,0.054541,0.054573,0.054606,0.054638,0.05467,0.054703,0.054735,0.054768,0.0548,0.054833,0.054865,0.054898,0.054931,0.054964,0.054997,0.05503,0.055063,0.055096,0.055129,0.055163,0.055196,0.05523,0.055263,0.055297,0.05533,0.055364,0.055398,0.055432,0.055465,0.055499,0.055533,0.055568,0.055602,0.055636,0.05567,0.055705,0.055739,0.055774,0.055808,0.055843,0.055878,0.055912,0.055947,0.055982,0.056017,0.056052,0.056087,0.056123,0.056158,0.056193,0.056229,0.056264,0.0563,0.056335,0.056371,0.056407,0.056443,0.056479,0.056515,0.056551,0.056587,0.056623,0.05666,0.056696,0.056732,0.056769,0.056805,0.056842,0.056879,0.056916,0.056953,0.05699,0.057027,0.057064,0.057101,0.057138,0.057176,0.057213,0.057251,0.057288,0.057326,0.057363,0.057401,0.057439,0.057477,0.057515,0.057553,0.057591,0.05763,0.057668,0.057707,0.057745,0.057784,0.057822,0.057861,0.0579,0.057939,0.057978,0.058017,0.058056,0.058095,0.058134,0.058174,0.058213,0.058253,0.058292,0.058332,0.058372,0.058412,0.058452,0.058492,0.058532,0.058572,0.058612,0.058653,0.058693,0.058734,0.058774,0.058815,0.058856,0.058897,0.058938,0.058979,0.05902,0.059061,0.059102,0.059144,0.059185,0.059227,0.059268,0.05931,0.059352,0.059394,0.059436,0.059478,0.05952,0.059562,0.059604,0.059647,0.059689,0.059732,0.059775,0.059817,0.05986,0.059903,0.059946,0.059989,0.060033,0.060076,0.060119,0.060163,0.060206,0.06025,0.060294,0.060337,0.060381,0.060425,0.06047,0.060514,0.060558,0.060602,0.060647,0.060691,0.060736,0.060781,0.060826,0.060871,0.060916,0.060961,0.061006,0.061051,0.061097,0.061142,0.061188,0.061234,0.061279,0.061325,0.061371,0.061417,0.061463,0.06151,0.061556,0.061602,0.061649,0.061696,0.061742,0.061789,0.061836,0.061883,0.06193,0.061978,0.062025,0.062072,0.06212,0.062168,0.062215,0.062263,0.062311,0.062359,0.062407,0.062455,0.062504,0.062552,0.062601,0.062649,0.062698,0.062747,0.062796,0.062845,0.062894,0.062943,0.062993,0.063042,0.063092,0.063141,0.063191,0.063241,0.063291,0.063341,0.063391,0.063441,0.063492,0.063542,0.063593,0.063643,0.063694,0.063745,0.063796,0.063847,0.063899,0.06395,0.064001,0.064053,0.064104,0.064156,0.064208,0.06426,0.064312,0.064364,0.064417,0.064469,0.064522,0.064574,0.064627,0.06468,0.064733,0.064786,0.064839,0.064892,0.064946,0.064999,0.065053,0.065107,0.065161,0.065215,0.065269,0.065323,0.065377,0.065432,0.065486,0.065541,0.065596,0.06565,0.065705,0.065761,0.065816,0.065871,0.065927,0.065982,0.066038,0.066094,0.06615,0.066206,0.066262,0.066318,0.066374,0.066431,0.066488,0.066544,0.066601,0.066658,0.066715,0.066773,0.06683,0.066887,0.066945,0.067003,0.06706,0.067118,0.067176,0.067235,0.067293,0.067351,0.06741,0.067469,0.067527,0.067586,0.067645,0.067704,0.067764,0.067823,0.067883,0.067942,0.068002,0.068062,0.068122,0.068182,0.068243,0.068303,0.068364,0.068424,0.068485,0.068546,0.068607,0.068668,0.068729,0.068791,0.068852,0.068914,0.068976,0.069038,0.0691,0.069162,0.069224,0.069287,0.06935,0.069412,0.069475,0.069538,0.069601,0.069664,0.069728,0.069791,0.069855,0.069919,0.069983,0.070047,0.070111,0.070175,0.07024,0.070304,0.070369,0.070434,0.070499,0.070564,0.070629,0.070695,0.07076,0.070826,0.070892,0.070957,0.071024,0.07109,0.071156,0.071223,0.071289,0.071356,0.071423,0.07149,0.071557,0.071624,0.071692,0.071759,0.071827,0.071895,0.071963,0.072031,0.0721,0.072168,0.072237,0.072305,0.072374,0.072443,0.072512,0.072582,0.072651,0.072721,0.072791,0.07286,0.07293,0.073001,0.073071,0.073141,0.073212,0.073283,0.073354,0.073425,0.073496,0.073567,0.073639,0.07371,0.073782,0.073854,0.073926,0.073998,0.074071,0.074143,0.074216,0.074289,0.074362,0.074435,0.074508,0.074582,0.074655,0.074729,0.074803,0.074877,0.074951,0.075026,0.0751,0.075175,0.07525,0.075325,0.0754,0.075475,0.075551,0.075626,0.075702,0.075778,0.075854,0.07593,0.076006,0.076083,0.07616,0.076237,0.076314,0.076391,0.076468,0.076546,0.076623,0.076701,0.076779,0.076857,0.076935,0.077014,0.077093,0.077171,0.07725,0.077329,0.077409,0.077488,0.077568,0.077647,0.077727,0.077807,0.077888,0.077968,0.078049,0.078129,0.07821,0.078291,0.078373,0.078454,0.078536,0.078617,0.078699,0.078781,0.078864,0.078946,0.079029,0.079111,0.079194,0.079277,0.079361,0.079444,0.079528,0.079612,0.079695,0.07978,0.079864,0.079948,0.080033,0.080118,0.080203,0.080288,0.080373,0.080459,0.080544,0.08063,0.080716,0.080803,0.080889,0.080976,0.081062,0.081149,0.081236,0.081324,0.081411,0.081499,0.081586,0.081674,0.081763,0.081851,0.081939,0.082028,0.082117,0.082206,0.082295,0.082385,0.082474,0.082564,0.082654,0.082744,0.082835,0.082925,0.083016,0.083107,0.083198,0.083289,0.083381,0.083472,0.083564,0.083656,0.083748,0.083841,0.083933,0.084026,0.084119,0.084212,0.084305,0.084399,0.084492,0.084586,0.08468,0.084775,0.084869,0.084964,0.085059,0.085154,0.085249,0.085344,0.08544,0.085536,0.085632,0.085728,0.085824,0.085921,0.086018,0.086115,0.086212,0.086309,0.086407,0.086504,0.086602,0.086701,0.086799,0.086897,0.086996,0.087095,0.087194,0.087294,0.087393,0.087493,0.087593,0.087693,0.087793,0.087894,0.087994,0.088095,0.088197,0.088298,0.088399,0.088501,0.088603,0.088705,0.088808,0.08891,0.089013,0.089116,0.089219,0.089323,0.089426,0.08953,0.089634,0.089738,0.089843,0.089947,0.090052,0.090157,0.090262,0.090368,0.090474,0.09058,0.090686,0.090792,0.090899,0.091005,0.091112,0.091219,0.091327,0.091434,0.091542,0.09165,0.091758,0.091867,0.091976,0.092084,0.092194,0.092303,0.092412,0.092522,0.092632,0.092742,0.092853,0.092963,0.093074,0.093185,0.093297,0.093408,0.09352,0.093632,0.093744,0.093856,0.093969,0.094082,0.094195,0.094308,0.094422,0.094535,0.094649,0.094764,0.094878,0.094993,0.095107,0.095222,0.095338,0.095453,0.095569,0.095685,0.095801,0.095918,0.096034,0.096151,0.096268,0.096386,0.096503,0.096621,0.096739,0.096858,0.096976,0.097095,0.097214,0.097333,0.097453,0.097572
0.097915,0.09782,0.097725,0.097629,0.097534,0.097439,0.097344,0.097249,0.097155,0.09706,0.096965,0.096871,0.096776,0.096682,0.096588,0.096493,0.096399,0.096305,0.096211,0.096117,0.096024,0.09593,0.095836,0.095743,0.095649,0.095556,0.095463,0.09537,0.095277,0.095184,0.095091,0.094998,0.094905,0.094812,0.09472,0.094627,0.094535,0.094443,0.09435,0.094258,0.094166,0.094074,0.093982,0.093891,0.093799,0.093707,0.093616,0.093524,0.093433,0.093342,0.09325,0.093159,0.093068,0.092977,0.092886,0.092796,0.092705,0.092614,0.092524,0.092433,0.092343,0.092253,0.092163,0.092072,0.091982,0.091893,0.091803,0.091713,0.091623,0.091534,0.091444,0.091355,0.091265,0.091176,0.091087,0.090998,0.090909,0.09082,0.090731,0.090642,0.090554,0.090465,0.090377,0.090288,0.0902,0.090112,0.090024,0.089936,0.089848,0.08976,0.089672,0.089584,0.089496,0.089409,0.089321,0.089234,0.089147,0.089059,0.088972,0.088885,0.088798,0.088711,0.088625,0.088538,0.088451,0.088365,0.088278,0.088192,0.088105,0.088019,0.087933,0.087847,0.087761,0.087675,0.087589,0.087504,0.087418,0.087332,0.087247,0.087162,0.087076,0.086991,0.086906,0.086821,0.086736,0.086651,0.086566,0.086482,0.086397,0.086312,0.086228,0.086144,0.086059,0.085975,0.085891,0.085807,0.085723,0.085639,0.085555,0.085471,0.085388,0.085304,0.085221,0.085137,0.085054,0.084971,0.084888,0.084805,0.084722,0.084639,0.084556,0.084473,0.084391,0.084308,0.084226,0.084143,0.084061,0.083979,0.083897,0.083815,0.083733,0.083651,0.083569,0.083487,0.083405,0.083324,0.083242,0.083161,0.08308,0.082998,0.082917,0.082836,0.082755,0.082674,0.082594,0.082513,0.082432,0.082352,0.082271,0.082191,0.08211,0.08203,0.08195,0.08187,0.08179,0.08171,0.08163,0.08155,0.081471,0.081391,0.081312,0.081232,0.081153,0.081074,0.080994,0.080915,0.080836,0.080757,0.080678,0.0806,0.080521,0.080442,0.080364,0.080285,0.080207,0.080129,0.080051,0.079972,0.079894,0.079816,0.079739,0.079661,0.079583,0.079505,0.079428,0.07935,0.079273,0.079196,0.079119,0.079041,0.078964,0.078887,0.07881,0.078734,0.078657,0.07858,0.078504,0.078427,0.078351,0.078274,0.078198,0.078122,0.078046,0.07797,0.077894,0.077818,0.077742,0.077667,0.077591,0.077516,0.07744,0.077365,0.07729,0.077214,0.077139,0.077064,0.076989,0.076914,0.07684,0.076765,0.07669,0.076616,0.076541,0.076467,0.076393,0.076318,0.076244,0.07617,0.076096,0.076022,0.075948,0.075875,0.075801,0.075727,0.075654,0.07558,0.075507,0.075434,0.075361,0.075288,0.075214,0.075142,0.075069,0.074996,0.074923,0.074851,0.074778,0.074706,0.074633,0.074561,0.074489,0.074416,0.074344,0.074272,0.074201,0.074129,0.074057,0.073985,0.073914,0.073842,0.073771,0.073699,0.073628,0.073557,0.073486,0.073415,0.073344,0.073273,0.073202,0.073132,0.073061,0.07299,0.07292,0.072849,0.072779,0.072709,0.072639,0.072569,0.072499,0.072429,0.072359,0.072289,0.07222,0.07215,0.07208,0.072011,0.071942,0.071872,0.071803,0.071734,0.071665,0.071596,0.071527,0.071458,0.07139,0.071321,0.071252,0.071184,0.071115,0.071047,0.070979,0.070911,0.070843,0.070775,0.070707,0.070639,0.070571,0.070503,0.070436,0.070368,0.070301,0.070233,0.070166,0.070099,0.070031,0.069964,0.069897,0.06983,0.069764,0.069697,0.06963,0.069564,0.069497,0.069431,0.069364,0.069298,0.069232,0.069166,0.0691,0.069034,0.068968,0.068902,0.068836,0.06877,0.068705,0.068639,0.068574,0.068508,0.068443,0.068378,0.068313,0.068248,0.068183,0.068118,0.068053,0.067988,0.067924,0.067859,0.067795,0.06773,0.067666,0.067602,0.067537,0.067473,0.067409,0.067345,0.067281,0.067218,0.067154,0.06709,0.067027,0.066963,0.0669,0.066836,0.066773,0.06671,0.066647,0.066584,0.066521,0.066458,0.066395,0.066333,0.06627,0.066207,0.066145,0.066082,0.06602,0.065958,0.065896,0.065834,0.065772,0.06571,0.065648,0.065586,0.065524,0.065463,0.065401,0.065339,0.065278,0.065217,0.065155,0.065094,0.065033,0.064972,0.064911,0.06485,0.06479,0.064729,0.064668,0.064608,0.064547,0.064487,0.064426,0.064366,0.064306,0.064246,0.064186,0.064126,0.064066,0.064006,0.063946,0.063887,0.063827,0.063768,0.063708,0.063649,0.06359,0.06353,0.063471,0.063412,0.063353,0.063294,0.063236,0.063177,0.063118,0.06306,0.063001,0.062943,0.062884,0.062826,0.062768,0.06271,0.062652,0.062594,0.062536,0.062478,0.06242,0.062362,0.062305,0.062247,0.06219,0.062132,0.062075,0.062018,0.061961,0.061904,0.061847,0.06179,0.061733,0.061676,0.061619,0.061563,0.061506,0.06145,0.061393,0.061337,0.061281,0.061225,0.061169,0.061113,0.061057,0.061001,0.060945,0.060889,0.060834,0.060778,0.060723,0.060667,0.060612,0.060557,0.060501,0.060446,0.060391,0.060336,0.060281,0.060227,0.060172,0.060117,0.060062,0.060008,0.059954,0.059899,0.059845,0.059791,0.059736,0.059682,0.059628,0.059575,0.059521,0.059467,0.059413,0.05936,0.059306,0.059253,0.059199,0.059146,0.059093,0.059039,0.058986,0.058933,0.05888,0.058827,0.058775,0.058722,0.058669,0.058617,0.058564,0.058512,0.058459,0.058407,0.058355,0.058303,0.058251,0.058199,0.058147,0.058095,0.058043,0.057991,0.05794,0.057888,0.057837,0.057785,0.057734,0.057683,0.057632,0.05758,0.057529,0.057478,0.057428,0.057377,0.057326,0.057275,0.057225,0.057174,0.057124,0.057073,0.057023,0.056973,0.056923,0.056873,0.056823,0.056773,0.056723,0.056673,0.056623,0.056574,0.056524,0.056475,0.056425,0.056376,0.056327,0.056277,0.056228,0.056179,0.05613,0.056081,0.056033,0.055984,0.055935,0.055886,0.055838,0.055789,0.055741,0.055693,0.055644,0.055596,0.055548,0.0555,0.055452,0.055404,0.055356,0.055309,0.055261,0.055213,0.055166,0.055118,0.055071,0.055024,0.054977,0.054929,0.054882,0.054835,0.054788,0.054741,0.054695,0.054648,0.054601,0.054555,0.054508,0.054462,0.054415,0.054369,0.054323,0.054277,0.054231,0.054185,0.054139,0.054093,0.054047,0.054001,0.053956,0.05391,0.053865,0.053819,0.053774,0.053729,0.053683,0.053638,0.053593,0.053548,0.053503,0.053458,0.053414,0.053369,0.053324,0.05328,0.053235,0.053191,0.053146,0.053102,0.053058,0.053014,0.05297,0.052926,0.052882,0.052838,0.052794,0.05275,0.052707,0.052663,0.05262,0.052576,0.052533,0.05249,0.052446,0.052403,0.05236,0.052317,0.052274,0.052231,0.052189,0.052146,0.052103,0.052061,0.052018,0.051976,0.051933,0.051891,0.051849,0.051807,0.051765,0.051723,0.051681,0.051639,0.051597,0.051555,0.051514,0.051472,0.051431,0.051389,0.051348,0.051306,0.051265,0.051224,0.051183,0.051142,0.051101,0.05106,0.051019,0.050979,0.050938,0.050897,0.050857,0.050816,0.050776,0.050736,0.050695,0.050655,0.050615,0.050575,0.050535,0.050495,0.050455,0.050416,0.050376,0.050336,0.050297,0.050257,0.050218,0.050179,0.050139,0.0501,0.050061,0.050022,0.049983,0.049944,0.049905,0.049867,0.049828,0.049789,0.049751,0.049712,0.049674,0.049635,0.049597,0.049559,0.049521,0.049483,0.049445,0.049407,0.049369,0.049331,0.049293,0.049256,0.049218,0.049181,0.049143,0.049106,0.049068,0.049031,0.048994,0.048957,0.04892,0.048883,0.048846,0.048809,0.048772,0.048736,0.048699,0.048663,0.048626,0.04859,0.048553,0.048517,0.048481,0.048445,0.048409,0.048373,0.048337,0.048301,0.048265,0.048229,0.048194,0.048158,0.048122,0.048087,0.048052,0.048016,0.047981,0.047946,0.047911,0.047876,0.047841,0.047806,0.047771,0.047736,0.047702,0.047667,0.047632,0.047598,0.047564,0.047529,0.047495,0.047461,0.047427,0.047392,0.047358,0.047324,0.047291,0.047257,0.047223,0.047189,0.047156,0.047122,0.047089,0.047055,0.047022,0.046989,0.046956,0.046922,0.046889,0.046856,0.046823,0.046791,0.046758,0.046725,0.046692,0.04666,0.046627,0.046595,0.046562,0.04653,0.046498,0.046466,0.046434,0.046402,0.04637,0.046338,0.046306,0.046274,0.046242,0.046211,0.046179,0.046148,0.046116,0.046085,0.046054,0.046022,0.045991,0.04596,0.045929,0.045898,0.045867,0.045836,0.045806,0.045775,0.045744,0.045714,0.045683,0.045653,0.045622,0.045592,0.045562,0.045532,0.045502,0.045472,0.045442,0.045412,0.045382,0.045352,0.045322,0.045293,0.045263,0.045234,0.045204,0.045175,0.045146,0.045116,0.045087,0.045058,0.045029,0.045,0.044971,0.044942,0.044914,0.044885,0.044856,0.044828,0.044799,0.044771,0.044742,0.044714,0.044686,0.044658,0.04463,0.044602,0.044574,0.044546,0.044518,0.04449,0.044462,0.044435,0.044407,0.04438,0.044352,0.044325,0.044298,0.04427,0.044243,0.044216,0.044189,0.044162,0.044135,0.044108,0.044082,0.044055,0.044028,0.044002,0.043975,0.043949,0.043922,0.043896,0.04387,0.043843,0.043817,0.043791,0.043765,0.043739,0.043713,0.043688,0.043662,0.043636,0.043611,0.043585,0.04356,0.043534,0.043509,0.043484,0.043458,0.043433,0.043408,0.043383,0.043358,0.043333,0.043309,0.043284,0.043259,0.043235,0.04321,0.043185,0.043161,0.043137,0.043112,0.043088,0.043064,0.04304,0.043016,0.042992,0.042968,0.042944,0.04292,0.042897,0.042873,0.042849,0.042826,0.042802,0.042779,0.042756,0.042732,0.042709,0.042686,0.042663,0.04264,0.042617,0.042594,0.042571,0.042549,0.042526,0.042503,0.042481,0.042458,0.042436,0.042413,0.042391,0.042369,0.042347,0.042325,0.042303,0.042281,0.042259,0.042237,0.042215,0.042193,0.042172,0.04215,0.042129,0.042107,0.042086,0.042064,0.042043,0.042022,0.042001,0.04198,0.041959,0.041938,0.041917,0.041896,0.041875,0.041854,0.041834,0.041813,0.041793,0.041772,0.041752,0.041732,0.041711,0.041691,0.041671,0.041651,0.041631,0.041611,0.041591,0.041571,0.041552,0.041532,0.041512,0.041493,0.041473,0.041454,0.041434,0.041415,0.041396,0.041377,0.041358,0.041338,0.04132,0.041301,0.041282,0.041263,0.041244,0.041225,0.041207,0.041188,0.04117,0.041151,0.041133,0.041115,0.041097,0.041078,0.04106,0.041042,0.041024,0.041006,0.040988,0.040971,0.040953,0.040935,0.040918,0.0409,0.040883,0.040865,0.040848,0.04083,0.040813,0.040796,0.040779,0.040762,0.040745,0.040728,0.040711,0.040694,0.040678,0.040661,0.040644,0.040628,0.040611,0.040595,0.040578,0.040562,0.040546,0.04053,0.040514,0.040498,0.040482,0.040466,0.04045,0.040434,0.040418,0.040402,0.040387,0.040371,0.040356,0.04034,0.040325,0.04031,0.040294,0.040279,0.040264,0.040249,0.040234,0.040219,0.040204,0.040189,0.040175,0.04016,0.040145,0.040131,0.040116,0.040102,0.040087,0.040073,0.040059,0.040045,0.04003,0.040016,0.040002,0.039988,0.039974,0.039961,0.039947,0.039933,0.039919,0.039906,0.039892,0.039879,0.039865,0.039852,0.039839,0.039825,0.039812,0.039799,0.039786,0.039773,0.03976,0.039747,0.039735,0.039722,0.039709,0.039697,0.039684,0.039671,0.039659,0.039647,0.039634,0.039622,0.03961,0.039598,0.039586,0.039574,0.039562,0.03955,0.039538,0.039526,0.039514,0.039503,0.039491,0.03948,0.039468,0.039457,0.039445,0.039434,0.039423,0.039412,0.039401,0.039389,0.039378,0.039368,0.039357,0.039346,0.039335,0.039324,0.039314,0.039303,0.039293,0.039282,0.039272,0.039262,0.039251,0.039241,0.039231,0.039221,0.039211,0.039201,0.039191,0.039181,0.039171,0.039161,0.039152,0.039142,0.039133,0.039123,0.039114,0.039104,0.039095,0.039086,0.039076,0.039067,0.039058,0.039049,0.03904,0.039031,0.039022,0.039014,0.039005,0.038996,0.038988,0.038979,0.038971,0.038962,0.038954,0.038946,0.038937,0.038929,0.038921,0.038913,0.038905,0.038897,0.038889,0.038881,0.038873,0.038866,0.038858,0.03885,0.038843,0.038835,0.038828,0.03882,0.038813,0.038806,0.038799,0.038792,0.038784,0.038777,0.03877,0.038764,0.038757,0.03875,0.038743,0.038737,0.03873,0.038723,0.038717,0.03871,0.038704,0.038698,0.038691,0.038685,0.038679,0.038673,0.038667,0.038661,0.038655,0.038649,0.038643,0.038638,0.038632,0.038626,0.038621,0.038615,0.03861,0.038604,0.038599,0.038594,0.038589,0.038583,0.038578,0.038573,0.038568,0.038563,0.038559,0.038554,0.038549,0.038544,0.03854,0.038535,0.038531,0.038526,0.038522,0.038517,0.038513,0.038509,0.038505,0.0385,0.038496,0.038492,0.038488,0.038484,0.038481,0.038477,0.038473,0.038469,0.038466,0.038462,0.038459,0.038455,0.038452,0.038449,0.038445,0.038442,0.038439,0.038436,0.038433,0.03843,0.038427,0.038424,0.038421,0.038419,0.038416,0.038413,0.038411,0.038408,0.038406,0.038403,0.038401,0.038399,0.038396,0.038394,0.038392,0.03839,0.038388,0.038386,0.038384,0.038382,0.03838,0.038379,0.038377,0.038375,0.038374,0.038372,0.038371,0.038369,0.038368,0.038367,0.038366,0.038364,0.038363,0.038362,0.038361,0.03836,0.038359,0.038359,0.038358,0.038357,0.038356,0.038356,0.038355,0.038355,0.038354,0.038354,0.038354,0.038353,0.038353,0.038353,0.038353,0.038353,0.038353,0.038353,0.038353,0.038353,0.038353,0.038354,0.038354,0.038354,0.038355,0.038355,0.038356,0.038356,0.038357,0.038358,0.038359,0.038359,0.03836,0.038361,0.038362,0.038363,0.038364,0.038366,0.038367,0.038368,0.038369,0.038371,0.038372,0.038374,0.038375,0.038377,0.038379,0.03838,0.038382,0.038384,0.038386,0.038388,0.03839,0.038392,0.038394,0.038396,0.038398,0.038401,0.038403,0.038405,0.038408,0.03841,0.038413,0.038415,0.038418,0.038421,0.038423,0.038426,0.038429,0.038432,0.038435,0.038438,0.038441,0.038444,0.038448,0.038451,0.038454,0.038457,0.038461,0.038464,0.038468,0.038471,0.038475,0.038479,0.038482,0.038486,0.03849,0.038494,0.038498,0.038502,0.038506,0.03851,0.038514,0.038519,0.038523,0.038527,0.038532,0.038536,0.038541,0.038545,0.03855,0.038554,0.038559,0.038564,0.038569,0.038574,0.038578,0.038583,0.038588,0.038594,0.038599,0.038604,0.038609,0.038614,0.03862,0.038625,0.038631,0.038636,0.038642,0.038647,0.038653,0.038659,0.038665,0.03867,0.038676,0.038682,0.038688,0.038694,0.0387,0.038707,0.038713,0.038719,0.038725,0.038732,0.038738,0.038745,0.038751,0.038758,0.038764,0.038771,0.038778,0.038785,0.038791,0.038798,0.038805,0.038812,0.038819,0.038826,0.038834,0.038841,0.038848,0.038855,0.038863,0.03887,0.038878,0.038885,0.038893,0.0389,0.038908,0.038916,0.038924,0.038931,0.038939,0.038947,0.038955,0.038963,0.038971,0.03898,0.038988,0.038996,0.039004,0.039013,0.039021,0.03903,0.039038,0.039047,0.039055,0.039064,0.039073,0.039082,0.03909,0.039099,0.039108,0.039117,0.039126,0.039135,0.039145,0.039154,0.039163,0.039172,0.039182,0.039191,0.039201,0.03921,0.03922,0.039229,0.039239,0.039249,0.039258,0.039268,0.039278,0.039288,0.039298,0.039308,0.039318,0.039328,0.039338,0.039349,0.039359,0.039369,0.03938,0.03939,0.039401,0.039411,0.039422,0.039432,0.039443,0.039454,0.039465,0.039475,0.039486,0.039497,0.039508,0.039519,0.03953,0.039542,0.039553,0.039564,0.039575,0.039587,0.039598,0.03961,0.039621,0.039633,0.039644,0.039656,0.039668,0.039679,0.039691,0.039703,0.039715,0.039727,0.039739,0.039751,0.039763,0.039775,0.039788,0.0398,0.039812,0.039825,0.039837,0.039849,0.039862,0.039875,0.039887,0.0399,0.039913,0.039925,0.039938,0.039951,0.039964,0.039977,0.03999,0.040003,0.040016,0.040029,0.040043,0.040056,0.040069,0.040083,0.040096,0.040109,0.040123,0.040137,0.04015,0.040164,0.040178,0.040191,0.040205,0.040219,0.040233,0.040247,0.040261,0.040275,0.040289,0.040303,0.040318,0.040332,0.040346,0.04036,0.040375,0.040389,0.040404,0.040418,0.040433,0.040448,0.040462,0.040477,0.040492,0.040507,0.040522,0.040537,0.040552,0.040567,0.040582,0.040597,0.040612,0.040628,0.040643,0.040658,0.040674,0.040689,0.040705,0.04072,0.040736,0.040751,0.040767,0.040783,0.040799,0.040815,0.04083,0.040846,0.040862,0.040878,0.040894,0.040911,0.040927,0.040943,0.040959,0.040976,0.040992,0.041008,0.041025,0.041041,0.041058,0.041075,0.041091,0.041108,0.041125,0.041142,0.041159,0.041175,0.041192,0.041209,0.041227,0.041244,0.041261,0.041278,0.041295,0.041313,0.04133,0.041347,0.041365,0.041382,0.0414,0.041417,0.041435,0.041453,0.04147,0.041488,0.041506,0.041524,0.041542,0.04156,0.041578,0.041596,0.041614,0.041632,0.04165,0.041669,0.041687,0.041705,0.041724,0.041742,0.041761,0.041779,0.041798,0.041816,0.041835,0.041854,0.041873,0.041891,0.04191,0.041929,0.041948,0.041967,0.041986,0.042005,0.042025,0.042044,0.042063,0.042082,0.042102,0.042121,0.042141,0.04216,0.04218,0.042199,0.042219,0.042239,0.042258,0.042278,0.042298,0.042318,0.042338,0.042358,0.042378,0.042398,0.042418,0.042438,0.042458,0.042478,0.042499,0.042519,0.042539,0.04256,0.04258,0.042601,0.042621,0.042642,0.042663,0.042683,0.042704,0.042725,0.042746,0.042767,0.042788,0.042809,0.04283,0.042851,0.042872,0.042893,0.042914,0.042936,0.042957,0.042978,0.043,0.043021,0.043043,0.043064,0.043086,0.043107,0.043129,0.043151,0.043173,0.043194,0.043216,0.043238,0.04326,0.043282,0.043304,0.043326,0.043348,0.043371,0.043393,0.043415,0.043437,0.04346,0.043482,0.043505,0.043527,0.04355,0.043572,0.043595,0.043618,0.04364,0.043663,0.043686,0.043709,0.043732,0.043755,0.043778,0.043801,0.043824,0.043847,0.04387,0.043893,0.043917,0.04394,0.043963,0.043987,0.04401,0.044034,0.044057,0.044081,0.044105,0.044128,0.044152,0.044176,0.0442,0.044224,0.044247,0.044271,0.044295,0.044319,0.044344,0.044368,0.044392,0.044416,0.04444,0.044465,0.044489,0.044513,0.044538,0.044562,0.044587,0.044611,0.044636,0.044661,0.044686,0.04471,0.044735,0.04476,0.044785,0.04481,0.044835,0.04486,0.044885,0.04491,0.044935,0.04496,0.044986,0.045011,0.045036,0.045062,0.045087,0.045113,0.045138,0.045164,0.045189,0.045215,0.045241,0.045266,0.045292,0.045318,0.045344,0.04537,0.045396,0.045422,0.045448,0.045474,0.0455,0.045526,0.045552,0.045579,0.045605,0.045631,0.045658,0.045684,0.04571,0.045737,0.045764,0.04579,0.045817,0.045844,0.04587,0.045897,0.045924,0.045951,0.045978,0.046005,0.046032,0.046059,0.046086,0.046113,0.04614,0.046167,0.046195,0.046222,0.046249,0.046277,0.046304,0.046332,0.046359,0.046387,0.046414,0.046442,0.04647,0.046497,0.046525,0.046553,0.046581,0.046609,0.046637,0.046665,0.046693,0.046721,0.046749,0.046777,0.046805,0.046833,0.046862,0.04689,0.046918,0.046947,0.046975,0.047004,0.047032,0.047061,0.04709,0.047118,0.047147,0.047176,0.047205,0.047233,0.047262,0.047291,0.04732,0.047349,0.047378,0.047407,0.047437,0.047466,0.047495,0.047524,0.047554,0.047583,0.047612,0.047642,0.047671,0.047701,0.04773,0.04776,0.04779,0.047819,0.047849,0.047879,0.047909,0.047938,0.047968,0.047998,0.048028,0.048058,0.048088,0.048118,0.048149,0.048179,0.048209,0.048239,0.04827,0.0483,0.04833,0.048361,0.048391,0.048422,0.048452,0.048483,0.048514,0.048544,0.048575,0.048606,0.048637,0.048667,0.048698,0.048729,0.04876,0.048791,0.048822,0.048853,0.048885,0.048916,0.048947,0.048978,0.04901,0.049041,0.049072,0.049104,0.049135,0.049167,0.049198,0.04923,0.049261,0.049293,0.049325,0.049357,0.049388,0.04942,0.049452,0.049484,0.049516,0.049548,0.04958,0.049612,0.049644,0.049676,0.049709,0.049741,0.049773,0.049806,0.049838,0.04987,0.049903,0.049935,0.049968,0.05,0.050033,0.050066,0.050098,0.050131,0.050164,0.050197,0.050229,0.050262,0.050295,0.050328,0.050361,0.050394,0.050427,0.05046,0.050494,0.050527,0.05056,0.050593,0.050627,0.05066,0.050694,0.050727,0.05076,0.050794,0.050828,0.050861,0.050895,0.050928,0.050962,0.050996,0.05103,0.051064,0.051098,0.051131,0.051165,0.051199,0.051233,0.051268,0.051302,0.051336,0.05137,0.051404,0.051439,0.051473,0.051507,0.051542,0.051576,0.051611,0.051645,0.05168,0.051714,0.051749,0.051784,0.051818,0.051853,0.051888,0.051923,0.051957,0.051992,0.052027,0.052062,0.052097,0.052132,0.052168,0.052203,0.052238,0.052273,0.052308,0.052344,0.052379,0.052414,0.05245,0.052485,0.052521,0.052556,0.052592,0.052627,0.052663,0.052699,0.052734,0.05277,0.052806,0.052842,0.052878,0.052914,0.05295,0.052986,0.053022,0.053058,0.053094,0.05313,0.053166,0.053202,0.053239,0.053275,0.053311,0.053348,0.053384,0.05342,0.053457,0.053493,0.05353,0.053567,0.053603,0.05364,0.053677,0.053713,0.05375,0.053787,0.053824,0.053861,0.053898,0.053935,0.053972,0.054009,0.054046,0.054083,0.05412,0.054157,0.054195,0.054232,0.054269,0.054307,0.054344,0.054381,0.054419,0.054456,0.054494,0.054532,0.054569,0.054607,0.054644,0.054682,0.05472,0.054758,0.054796,0.054834,0.054871,0.054909,0.054947,0.054985,0.055023,0.055062,0.0551,0.055138,0.055176,0.055214,0.055253,0.055291,0.055329,0.055368,0.055406,0.055445,0.055483,0.055522,0.05556,0.055599,0.055638,0.055676,0.055715,0.055754,0.055793,0.055831,0.05587,0.055909,0.055948,0.055987,0.056026,0.056065,0.056104,0.056143,0.056183,0.056222,0.056261,0.0563,0.05634,0.056379,0.056418,0.056458,0.056497,0.056537,0.056576,0.056616,0.056655,0.056695,0.056735,0.056774,0.056814,0.056854,0.056894,0.056934,0.056974,0.057014,0.057053,0.057093,0.057134,0.057174,0.057214,0.057254,0.057294,0.057334,0.057374,0.057415,0.057455,0.057495,0.057536,0.057576,0.057617,0.057657,0.057698,0.057738,0.057779,0.05782,0.05786,0.057901,0.057942,0.057983,0.058023,0.058064,0.058105,0.058146,0.058187,0.058228,0.058269,0.05831,0.058351,0.058392,0.058434,0.058475,0.058516,0.058557,0.058599,0.05864,0.058681,0.058723,0.058764,0.058806,0.058847,0.058889,0.05893,0.058972,0.059014,0.059055,0.059097,0.059139,0.059181,0.059222,0.059264,0.059306,0.059348,0.05939,0.059432,0.059474,0.059516,0.059558,0.059601,0.059643,0.059685,0.059727,0.059769,0.059812,0.059854,0.059897,0.059939,0.059981,0.060024,0.060066,0.060109,0.060152,0.060194,0.060237,0.06028,0.060322,0.060365,0.060408,0.060451,0.060494,0.060537,0.060579,0.060622,0.060665,0.060708,0.060752,0.060795,0.060838,0.060881,0.060924,0.060967,0.061011,0.061054,0.061097,0.061141,0.061184,0.061228,0.061271,0.061315,0.061358,0.061402,0.061445,0.061489,0.061533,0.061576,0.06162,0.061664,0.061708,0.061752,0.061795,0.061839,0.061883,0.061927,0.061971,0.062015,0.062059,0.062103,0.062148,0.062192,0.062236,0.06228,0.062325,0.062369,0.062413,0.062458,0.062502,0.062546,0.062591,0.062635,0.06268,0.062725,0.062769,0.062814,0.062858,0.062903,0.062948,0.062993,0.063037,0.063082,0.063127,0.063172,0.063217,0.063262,0.063307,0.063352,0.063397,0.063442,0.063487,0.063532,0.063578,0.063623,0.063668,0.063713,0.063759,0.063804,0.06385,0.063895,0.06394,0.063986,0.064031,0.064077,0.064123,0.064168,0.064214,0.064259,0.064305,0.064351,0.064397,0.064443,0.064488,0.064534,0.06458,0.064626,0.064672,0.064718,0.064764,0.06481,0.064856,0.064902,0.064949,0.064995,0.065041,0.065087,0.065133,0.06518,0.065226,0.065273,0.065319,0.065365,0.065412,0.065458,0.065505,0.065551,0.065598,0.065645,0.065691,0.065738,0.065785,0.065832,0.065878,0.065925,0.065972,0.066019,0.066066,0.066113,0.06616,0.066207,0.066254,0.066301,0.066348,0.066395,0.066442,0.066489,0.066537,0.066584,0.066631,0.066679,0.066726,0.066773,0.066821,0.066868,0.066916,0.066963,0.067011,0.067058,0.067106,0.067153,0.067201,0.067249,0.067297,0.067344,0.067392,0.06744,0.067488,0.067536,0.067583,0.067631,0.067679,0.067727,0.067775,0.067823,0.067872,0.06792,0.067968,0.068016,0.068064,0.068112,0.068161,0.068209,0.068257,0.068306,0.068354,0.068402,0.068451,0.068499,0.068548,0.068596,0.068645,0.068694,0.068742,0.068791,0.06884,0.068888,0.068937,0.068986,0.069035,0.069083,0.069132,0.069181,0.06923,0.069279,0.069328,0.069377,0.069426,0.069475,0.069524,0.069574,0.069623,0.069672,0.069721,0.06977,0.06982,0.069869,0.069918,0.069968,0.070017,0.070066,0.070116,0.070165,0.070215,0.070264,0.070314,0.070364,0.070413,0.070463,0.070513,0.070562,0.070612,0.070662,0.070712,0.070762,0.070811,0.070861,0.070911,0.070961,0.071011,0.071061,0.071111,0.071161,0.071211,0.071262,0.071312,0.071362,0.071412,0.071462,0.071513,0.071563,0.071613,0.071664,0.071714,0.071764,0.071815,0.071865,0.071916,0.071966,0.072017,0.072067,0.072118,0.072169,0.072219,0.07227,0.072321,0.072372,0.072422,0.072473,0.072524,0.072575,0.072626,0.072677,0.072728,0.072779,0.07283,0.072881,0.072932,0.072983,0.073034,0.073085,0.073136,0.073187,0.073239,0.07329,0.073341,0.073393,0.073444,0.073495,0.073547,0.073598,0.07365,0.073701,0.073753,0.073804,0.073856,0.073907,0.073959,0.074011,0.074062,0.074114,0.074166,0.074217,0.074269,0.074321,0.074373,0.074425,0.074477,0.074529,0.07458,0.074632,0.074684,0.074736,0.074789,0.074841,0.074893,0.074945,0.074997,0.075049,0.075101,0.075154,0.075206,0.075258,0.075311,0.075363,0.075415,0.075468,0.07552,0.075573,0.075625,0.075678,0.07573,0.075783,0.075835,0.075888,0.075941,0.075993,0.076046,0.076099,0.076152,0.076204,0.076257,0.07631,0.076363,0.076416,0.076469,0.076522,0.076575,0.076628,0.076681,0.076734,0.076787,0.07684,0.076893,0.076946,0.076999,0.077053,0.077106,0.077159,0.077212,0.077266,0.077319,0.077372,0.077426,0.077479,0.077533,0.077586,0.07764,0.077693,0.077747,0.0778,0.077854,0.077907,0.077961,0.078015,0.078068,0.078122,0.078176,0.07823,0.078284,0.078337,0.078391,0.078445,0.078499,0.078553,0.078607,0.078661,0.078715,0.078769,0.078823,0.078877,0.078931,0.078985,0.07904,0.079094,0.079148,0.079202,0.079256,0.079311,0.079365,0.079419,0.079474,0.079528,0.079583,0.079637,0.079692,0.079746,0.079801,0.079855,0.07991,0.079964,0.080019,0.080073,0.080128,0.080183,0.080238,0.080292,0.080347,0.080402,0.080457,0.080512,0.080566,0.080621,0.080676,0.080731,0.080786,0.080841,0.080896,0.080951,0.081006,0.081061,0.081116,0.081172,0.081227,0.081282,0.081337,0.081392,0.081448,0.081503,0.081558,0.081614,0.081669,0.081724,0.08178,0.081835,0.081891,0.081946,0.082002,0.082057,0.082113,0.082168,0.082224,0.08228,0.082335,0.082391,0.082447,0.082502,0.082558,0.082614,0.08267,0.082725,0.082781,0.082837,0.082893,0.082949,0.083005,0.083061,0.083117,0.083173,0.083229,0.083285,0.083341,0.083397,0.083453,0.083509,0.083565,0.083622,0.083678,0.083734,0.08379,0.083847,0.083903,0.083959,0.084016,0.084072,0.084129,0.084185,0.084241,0.084298,0.084354,0.084411,0.084467,0.084524,0.084581,0.084637,0.084694,0.084751,0.084807,0.084864,0.084921,0.084977,0.085034,0.085091,0.085148,0.085205,0.085262,0.085318,0.085375,0.085432,0.085489,0.085546,0.085603,0.08566,0.085717,0.085774,0.085831,0.085889,0.085946,0.086003,0.08606,0.086117,0.086175,0.086232,0.086289,0.086346,0.086404,0.086461,0.086518,0.086576,0.086633,0.086691,0.086748,0.086806,0.086863,0.086921,0.086978,0.087036,0.087093,0.087151,0.087209,0.087266,0.087324,0.087382,0.087439,0.087497,0.087555,0.087613,0.08767,0.087728,0.087786,0.087844,0.087902,0.08796,0.088018,0.088076,0.088134,0.088192,0.08825,0.088308,0.088366,0.088424,0.088482,0.08854,0.088598,0.088656,0.088715,0.088773,0.088831,0.088889,0.088948,0.089006,0.089064,0.089123,0.089181,0.089239,0.089298,0.089356
0.10392,0.10379,0.10365,0.10352,0.10339,0.10325,0.10312,0.10299,0.10286,0.10272,0.10259,0.10246,0.10233,0.1022,0.10207,0.10194,0.10181,0.10168,0.10154,0.10141,0.10128,0.10115,0.10103,0.1009,0.10077,0.10064,0.10051,0.10038,0.10025,0.10012,0.099995,0.099867,0.099739,0.099612,0.099484,0.099357,0.09923,0.099103,0.098977,0.09885,0.098724,0.098598,0.098472,0.098346,0.09822,0.098095,0.09797,0.097844,0.09772,0.097595,0.09747,0.097346,0.097222,0.097098,0.096974,0.09685,0.096727,0.096604,0.096481,0.096358,0.096235,0.096112,0.09599,0.095868,0.095746,0.095624,0.095502,0.095381,0.09526,0.095138,0.095018,0.094897,0.094776,0.094656,0.094536,0.094415,0.094296,0.094176,0.094056,0.093937,0.093818,0.093699,0.09358,0.093461,0.093343,0.093225,0.093106,0.092988,0.092871,0.092753,0.092636,0.092518,0.092401,0.092284,0.092168,0.092051,0.091935,0.091819,0.091703,0.091587,0.091471,0.091356,0.09124,0.091125,0.09101,0.090895,0.090781,0.090666,0.090552,0.090438,0.090324,0.09021,0.090096,0.089983,0.08987,0.089757,0.089644,0.089531,0.089418,0.089306,0.089194,0.089082,0.08897,0.088858,0.088746,0.088635,0.088524,0.088413,0.088302,0.088191,0.088081,0.08797,0.08786,0.08775,0.08764,0.087531,0.087421,0.087312,0.087203,0.087094,0.086985,0.086876,0.086768,0.086659,0.086551,0.086443,0.086335,0.086228,0.08612,0.086013,0.085906,0.085799,0.085692,0.085585,0.085479,0.085372,0.085266,0.08516,0.085054,0.084949,0.084843,0.084738,0.084633,0.084528,0.084423,0.084318,0.084214,0.08411,0.084005,0.083901,0.083798,0.083694,0.08359,0.083487,0.083384,0.083281,0.083178,0.083075,0.082973,0.082871,0.082768,0.082666,0.082564,0.082463,0.082361,0.08226,0.082159,0.082058,0.081957,0.081856,0.081755,0.081655,0.081555,0.081455,0.081355,0.081255,0.081155,0.081056,0.080957,0.080858,0.080759,0.08066,0.080561,0.080463,0.080364,0.080266,0.080168,0.080071,0.079973,0.079875,0.079778,0.079681,0.079584,0.079487,0.07939,0.079294,0.079197,0.079101,0.079005,0.078909,0.078813,0.078718,0.078622,0.078527,0.078432,0.078337,0.078242,0.078148,0.078053,0.077959,0.077865,0.077771,0.077677,0.077583,0.077489,0.077396,0.077303,0.07721,0.077117,0.077024,0.076931,0.076839,0.076747,0.076654,0.076562,0.076471,0.076379,0.076287,0.076196,0.076105,0.076014,0.075923,0.075832,0.075742,0.075651,0.075561,0.075471,0.075381,0.075291,0.075201,0.075112,0.075022,0.074933,0.074844,0.074755,0.074666,0.074578,0.074489,0.074401,0.074313,0.074225,0.074137,0.074049,0.073962,0.073874,0.073787,0.0737,0.073613,0.073526,0.07344,0.073353,0.073267,0.073181,0.073095,0.073009,0.072923,0.072837,0.072752,0.072667,0.072582,0.072497,0.072412,0.072327,0.072242,0.072158,0.072074,0.07199,0.071906,0.071822,0.071738,0.071655,0.071571,0.071488,0.071405,0.071322,0.07124,0.071157,0.071074,0.070992,0.07091,0.070828,0.070746,0.070664,0.070583,0.070501,0.07042,0.070339,0.070258,0.070177,0.070096,0.070016,0.069935,0.069855,0.069775,0.069695,0.069615,0.069535,0.069456,0.069376,0.069297,0.069218,0.069139,0.06906,0.068981,0.068903,0.068824,0.068746,0.068668,0.06859,0.068512,0.068434,0.068357,0.068279,0.068202,0.068125,0.068048,0.067971,0.067894,0.067818,0.067742,0.067665,0.067589,0.067513,0.067437,0.067362,0.067286,0.067211,0.067135,0.06706,0.066985,0.06691,0.066835,0.066761,0.066686,0.066612,0.066538,0.066464,0.06639,0.066316,0.066243,0.066169,0.066096,0.066023,0.065949,0.065877,0.065804,0.065731,0.065659,0.065586,0.065514,0.065442,0.06537,0.065298,0.065226,0.065155,0.065083,0.065012,0.064941,0.06487,0.064799,0.064728,0.064658,0.064587,0.064517,0.064447,0.064377,0.064307,0.064237,0.064167,0.064098,0.064028,0.063959,0.06389,0.063821,0.063752,0.063683,0.063615,0.063546,0.063478,0.06341,0.063342,0.063274,0.063206,0.063139,0.063071,0.063004,0.062936,0.062869,0.062802,0.062735,0.062669,0.062602,0.062536,0.062469,0.062403,0.062337,0.062271,0.062205,0.06214,0.062074,0.062009,0.061943,0.061878,0.061813,0.061748,0.061684,0.061619,0.061554,0.06149,0.061426,0.061362,0.061298,0.061234,0.06117,0.061107,0.061043,0.06098,0.060917,0.060853,0.060791,0.060728,0.060665,0.060602,0.06054,0.060478,0.060415,0.060353,0.060291,0.06023,0.060168,0.060106,0.060045,0.059984,0.059923,0.059861,0.059801,0.05974,0.059679,0.059619,0.059558,0.059498,0.059438,0.059378,0.059318,0.059258,0.059198,0.059139,0.059079,0.05902,0.058961,0.058902,0.058843,0.058784,0.058725,0.058667,0.058608,0.05855,0.058492,0.058434,0.058376,0.058318,0.05826,0.058203,0.058145,0.058088,0.058031,0.057974,0.057917,0.05786,0.057803,0.057746,0.05769,0.057634,0.057577,0.057521,0.057465,0.057409,0.057354,0.057298,0.057242,0.057187,0.057132,0.057077,0.057022,0.056967,0.056912,0.056857,0.056803,0.056748,0.056694,0.05664,0.056586,0.056532,0.056478,0.056424,0.05637,0.056317,0.056264,0.05621,0.056157,0.056104,0.056051,0.055998,0.055946,0.055893,0.055841,0.055788,0.055736,0.055684,0.055632,0.05558,0.055528,0.055477,0.055425,0.055374,0.055323,0.055271,0.05522,0.055169,0.055119,0.055068,0.055017,0.054967,0.054917,0.054866,0.054816,0.054766,0.054716,0.054666,0.054617,0.054567,0.054518,0.054468,0.054419,0.05437,0.054321,0.054272,0.054223,0.054175,0.054126,0.054078,0.054029,0.053981,0.053933,0.053885,0.053837,0.053789,0.053742,0.053694,0.053647,0.053599,0.053552,0.053505,0.053458,0.053411,0.053364,0.053318,0.053271,0.053225,0.053178,0.053132,0.053086,0.05304,0.052994,0.052948,0.052903,0.052857,0.052811,0.052766,0.052721,0.052676,0.052631,0.052586,0.052541,0.052496,0.052452,0.052407,0.052363,0.052318,0.052274,0.05223,0.052186,0.052142,0.052099,0.052055,0.052011,0.051968,0.051925,0.051881,0.051838,0.051795,0.051752,0.05171,0.051667,0.051624,0.051582,0.051539,0.051497,0.051455,0.051413,0.051371,0.051329,0.051287,0.051246,0.051204,0.051163,0.051121,0.05108,0.051039,0.050998,0.050957,0.050916,0.050875,0.050835,0.050794,0.050754,0.050714,0.050673,0.050633,0.050593,0.050553,0.050514,0.050474,0.050434,0.050395,0.050355,0.050316,0.050277,0.050238,0.050199,0.05016,0.050121,0.050082,0.050044,0.050005,0.049967,0.049929,0.04989,0.049852,0.049814,0.049776,0.049739,0.049701,0.049663,0.049626,0.049588,0.049551,0.049514,0.049477,0.04944,0.049403,0.049366,0.049329,0.049293,0.049256,0.04922,0.049183,0.049147,0.049111,0.049075,0.049039,0.049003,0.048967,0.048932,0.048896,0.048861,0.048825,0.04879,0.048755,0.04872,0.048685,0.04865,0.048615,0.04858,0.048546,0.048511,0.048477,0.048442,0.048408,0.048374,0.04834,0.048306,0.048272,0.048238,0.048205,0.048171,0.048138,0.048104,0.048071,0.048038,0.048005,0.047972,0.047939,0.047906,0.047873,0.04784,0.047808,0.047775,0.047743,0.047711,0.047679,0.047646,0.047614,0.047582,0.047551,0.047519,0.047487,0.047456,0.047424,0.047393,0.047362,0.04733,0.047299,0.047268,0.047237,0.047207,0.047176,0.047145,0.047115,0.047084,0.047054,0.047023,0.046993,0.046963,0.046933,0.046903,0.046873,0.046843,0.046814,0.046784,0.046755,0.046725,0.046696,0.046667,0.046637,0.046608,0.046579,0.046551,0.046522,0.046493,0.046464,0.046436,0.046407,0.046379,0.046351,0.046322,0.046294,0.046266,0.046238,0.04621,0.046183,0.046155,0.046127,0.0461,0.046072,0.046045,0.046018,0.045991,0.045964,0.045937,0.04591,0.045883,0.045856,0.045829,0.045803,0.045776,0.04575,0.045723,0.045697,0.045671,0.045645,0.045619,0.045593,0.045567,0.045541,0.045516,0.04549,0.045464,0.045439,0.045414,0.045388,0.045363,0.045338,0.045313,0.045288,0.045263,0.045238,0.045214,0.045189,0.045165,0.04514,0.045116,0.045091,0.045067,0.045043,0.045019,0.044995,0.044971,0.044947,0.044924,0.0449,0.044876,0.044853,0.044829,0.044806,0.044783,0.044759,0.044736,0.044713,0.04469,0.044668,0.044645,0.044622,0.044599,0.044577,0.044554,0.044532,0.04451,0.044487,0.044465,0.044443,0.044421,0.044399,0.044377,0.044355,0.044334,0.044312,0.04429,0.044269,0.044247,0.044226,0.044205,0.044184,0.044163,0.044141,0.044121,0.0441,0.044079,0.044058,0.044037,0.044017,0.043996,0.043976,0.043955,0.043935,0.043915,0.043895,0.043875,0.043855,0.043835,0.043815,0.043795,0.043775,0.043756,0.043736,0.043717,0.043697,0.043678,0.043659,0.04364,0.04362,0.043601,0.043582,0.043564,0.043545,0.043526,0.043507,0.043489,0.04347,0.043452,0.043433,0.043415,0.043397,0.043378,0.04336,0.043342,0.043324,0.043306,0.043288,0.043271,0.043253,0.043235,0.043218,0.0432,0.043183,0.043166,0.043148,0.043131,0.043114,0.043097,0.04308,0.043063,0.043046,0.043029,0.043012,0.042996,0.042979,0.042963,0.042946,0.04293,0.042913,0.042897,0.042881,0.042865,0.042849,0.042833,0.042817,0.042801,0.042785,0.04277,0.042754,0.042738,0.042723,0.042707,0.042692,0.042677,0.042661,0.042646,0.042631,0.042616,0.042601,0.042586,0.042571,0.042557,0.042542,0.042527,0.042513,0.042498,0.042484,0.042469,0.042455,0.042441,0.042426,0.042412,0.042398,0.042384,0.04237,0.042356,0.042342,0.042329,0.042315,0.042301,0.042288,0.042274,0.042261,0.042247,0.042234,0.042221,0.042208,0.042195,0.042181,0.042168,0.042156,0.042143,0.04213,0.042117,0.042104,0.042092,0.042079,0.042067,0.042054,0.042042,0.042029,0.042017,0.042005,0.041993,0.041981,0.041969,0.041957,0.041945,0.041933,0.041921,0.04191,0.041898,0.041886,0.041875,0.041863,0.041852,0.04184,0.041829,0.041818,0.041807,0.041796,0.041785,0.041774,0.041763,0.041752,0.041741,0.04173,0.041719,0.041709,0.041698,0.041688,0.041677,0.041667,0.041656,0.041646,0.041636,0.041626,0.041615,0.041605,0.041595,0.041585,0.041576,0.041566,0.041556,0.041546,0.041536,0.041527,0.041517,0.041508,0.041498,0.041489,0.04148,0.04147,0.041461,0.041452,0.041443,0.041434,0.041425,0.041416,0.041407,0.041398,0.041389,0.04138,0.041372,0.041363,0.041355,0.041346,0.041338,0.041329,0.041321,0.041313,0.041304,0.041296,0.041288,0.04128,0.041272,0.041264,0.041256,0.041248,0.04124,0.041233,0.041225,0.041217,0.04121,0.041202,0.041195,0.041187,0.04118,0.041172,0.041165,0.041158,0.041151,0.041144,0.041137,0.04113,0.041123,0.041116,0.041109,0.041102,0.041095,0.041088,0.041082,0.041075,0.041069,0.041062,0.041056,0.041049,0.041043,0.041037,0.04103,0.041024,0.041018,0.041012,0.041006,0.041,0.040994,0.040988,0.040982,0.040976,0.040971,0.040965,0.040959,0.040954,0.040948,0.040943,0.040937,0.040932,0.040926,0.040921,0.040916,0.040911,0.040905,0.0409,0.040895,0.04089,0.040885,0.04088,0.040875,0.040871,0.040866,0.040861,0.040856,0.040852,0.040847,0.040843,0.040838,0.040834,0.040829,0.040825,0.040821,0.040816,0.040812,0.040808,0.040804,0.0408,0.040796,0.040792,0.040788,0.040784,0.04078,0.040776,0.040772,0.040769,0.040765,0.040761,0.040758,0.040754,0.040751,0.040747,0.040744,0.040741,0.040737,0.040734,0.040731,0.040728,0.040725,0.040722,0.040719,0.040716,0.040713,0.04071,0.040707,0.040704,0.040701,0.040699,0.040696,0.040693,0.040691,0.040688,0.040686,0.040683,0.040681,0.040678,0.040676,0.040674,0.040672,0.040669,0.040667,0.040665,0.040663,0.040661,0.040659,0.040657,0.040655,0.040653,0.040651,0.04065,0.040648,0.040646,0.040645,0.040643,0.040641,0.04064,0.040638,0.040637,0.040636,0.040634,0.040633,0.040632,0.04063,0.040629,0.040628,0.040627,0.040626,0.040625,0.040624,0.040623,0.040622,0.040621,0.04062,0.04062,0.040619,0.040618,0.040617,0.040617,0.040616,0.040616,0.040615,0.040615,0.040614,0.040614,0.040614,0.040613,0.040613,0.040613,0.040613,0.040612,0.040612,0.040612,0.040612,0.040612,0.040612,0.040612,0.040612,0.040613,0.040613,0.040613,0.040613,0.040614,0.040614,0.040614,0.040615,0.040615,0.040616,0.040616,0.040617,0.040617,0.040618,0.040619,0.040619,0.04062,0.040621,0.040622,0.040623,0.040624,0.040625,0.040626,0.040627,0.040628,0.040629,0.04063,0.040631,0.040632,0.040634,0.040635,0.040636,0.040637,0.040639,0.04064,0.040642,0.040643,0.040645,0.040646,0.040648,0.04065,0.040651,0.040653,0.040655,0.040657,0.040658,0.04066,0.040662,0.040664,0.040666,0.040668,0.04067,0.040672,0.040674,0.040676,0.040678,0.040681,0.040683,0.040685,0.040687,0.04069,0.040692,0.040695,0.040697,0.0407,0.040702,0.040705,0.040707,0.04071,0.040712,0.040715,0.040718,0.040721,0.040723,0.040726,0.040729,0.040732,0.040735,0.040738,0.040741,0.040744,0.040747,0.04075,0.040753,0.040756,0.040759,0.040763,0.040766,0.040769,0.040772,0.040776,0.040779,0.040783,0.040786,0.040789,0.040793,0.040796,0.0408,0.040804,0.040807,0.040811,0.040815,0.040818,0.040822,0.040826,0.04083,0.040834,0.040838,0.040841,0.040845,0.040849,0.040853,0.040857,0.040862,0.040866,0.04087,0.040874,0.040878,0.040882,0.040887,0.040891,0.040895,0.0409,0.040904,0.040908,0.040913,0.040917,0.040922,0.040926,0.040931,0.040936,0.04094,0.040945,0.04095,0.040954,0.040959,0.040964,0.040969,0.040973,0.040978,0.040983,0.040988,0.040993,0.040998,0.041003,0.041008,0.041013,0.041018,0.041024,0.041029,0.041034,0.041039,0.041044,0.04105,0.041055,0.04106,0.041066,0.041071,0.041077,0.041082,0.041087,0.041093,0.041099,0.041104,0.04111,0.041115,0.041121,0.041127,0.041132,0.041138,0.041144,0.04115,0.041156,0.041161,0.041167,0.041173,0.041179,0.041185,0.041191,0.041197,0.041203,0.041209,0.041215,0.041222,0.041228,0.041234,0.04124,0.041246,0.041253,0.041259,0.041265,0.041272,0.041278,0.041284,0.041291,0.041297,0.041304,0.04131,0.041317,0.041323,0.04133,0.041337,0.041343,0.04135,0.041357,0.041364,0.04137,0.041377,0.041384,0.041391,0.041398,0.041405,0.041411,0.041418,0.041425,0.041432,0.041439,0.041446,0.041454,0.041461,0.041468,0.041475,0.041482,0.041489,0.041497,0.041504,0.041511,0.041519,0.041526,0.041533,0.041541,0.041548,0.041556,0.041563,0.04157,0.041578,0.041586,0.041593,0.041601,0.041608,0.041616,0.041624,0.041631,0.041639,0.041647,0.041655,0.041663,0.04167,0.041678,0.041686,0.041694,0.041702,0.04171,0.041718,0.041726,0.041734,0.041742,0.04175,0.041758,0.041766,0.041775,0.041783,0.041791,0.041799,0.041807,0.041816,0.041824,0.041832,0.041841,0.041849,0.041858,0.041866,0.041874,0.041883,0.041891,0.0419,0.041909,0.041917,0.041926,0.041934,0.041943,0.041952,0.04196,0.041969,0.041978,0.041987,0.041995,0.042004,0.042013,0.042022,0.042031,0.04204,0.042049,0.042058,0.042067,0.042076,0.042085,0.042094,0.042103,0.042112,0.042121,0.04213,0.04214,0.042149,0.042158,0.042167,0.042177,0.042186,0.042195,0.042205,0.042214,0.042223,0.042233,0.042242,0.042252,0.042261,0.042271,0.04228,0.04229,0.0423,0.042309,0.042319,0.042328,0.042338,0.042348,0.042358,0.042367,0.042377,0.042387,0.042397,0.042407,0.042417,0.042426,0.042436,0.042446,0.042456,0.042466,0.042476,0.042486,0.042496,0.042506,0.042517,0.042527,0.042537,0.042547,0.042557,0.042567,0.042578,0.042588,0.042598,0.042609,0.042619,0.042629,0.04264,0.04265,0.042661,0.042671,0.042682,0.042692,0.042703,0.042713,0.042724,0.042734,0.042745,0.042756,0.042766,0.042777,0.042788,0.042798,0.042809,0.04282,0.042831,0.042842,0.042852,0.042863,0.042874,0.042885,0.042896,0.042907,0.042918,0.042929,0.04294,0.042951,0.042962,0.042973,0.042984,0.042996,0.043007,0.043018,0.043029,0.04304,0.043052,0.043063,0.043074,0.043086,0.043097,0.043108,0.04312,0.043131,0.043143,0.043154,0.043166,0.043177,0.043189,0.0432,0.043212,0.043223,0.043235,0.043247,0.043258,0.04327,0.043282,0.043294,0.043305,0.043317,0.043329,0.043341,0.043353,0.043364,0.043376,0.043388,0.0434,0.043412,0.043424,0.043436,0.043448,0.04346,0.043472,0.043485,0.043497,0.043509,0.043521,0.043533,0.043545,0.043558,0.04357,0.043582,0.043595,0.043607,0.043619,0.043632,0.043644,0.043657,0.043669,0.043682,0.043694,0.043707,0.043719,0.043732,0.043744,0.043757,0.04377,0.043782,0.043795,0.043808,0.04382,0.043833,0.043846,0.043859,0.043872,0.043884,0.043897,0.04391,0.043923,0.043936,0.043949,0.043962,0.043975,0.043988,0.044001,0.044014,0.044027,0.04404,0.044054,0.044067,0.04408,0.044093,0.044106,0.04412,0.044133,0.044146,0.04416,0.044173,0.044186,0.0442,0.044213,0.044227,0.04424,0.044254,0.044267,0.044281,0.044294,0.044308,0.044322,0.044335,0.044349,0.044363,0.044376,0.04439,0.044404,0.044418,0.044432,0.044445,0.044459,0.044473,0.044487,0.044501,0.044515,0.044529,0.044543,0.044557,0.044571,0.044585,0.044599,0.044613,0.044628,0.044642,0.044656,0.04467,0.044684,0.044699,0.044713,0.044727,0.044742,0.044756,0.04477,0.044785,0.044799,0.044814,0.044828,0.044843,0.044857,0.044872,0.044887,0.044901,0.044916,0.044931,0.044945,0.04496,0.044975,0.04499,0.045004,0.045019,0.045034,0.045049,0.045064,0.045079,0.045094,0.045109,0.045124,0.045139,0.045154,0.045169,0.045184,0.045199,0.045214,0.045229,0.045245,0.04526,0.045275,0.04529,0.045306,0.045321,0.045336,0.045352,0.045367,0.045383,0.045398,0.045414,0.045429,0.045445,0.04546,0.045476,0.045491,0.045507,0.045523,0.045538,0.045554,0.04557,0.045586,0.045601,0.045617,0.045633,0.045649,0.045665,0.045681,0.045697,0.045713,0.045729,0.045745,0.045761,0.045777,0.045793,0.045809,0.045825,0.045842,0.045858,0.045874,0.04589,0.045907,0.045923,0.04594,0.045956,0.045972,0.045989,0.046005,0.046022,0.046038,0.046055,0.046071,0.046088,0.046105,0.046121,0.046138,0.046155,0.046172,0.046188,0.046205,0.046222,0.046239,0.046256,0.046273,0.04629,0.046307,0.046324,0.046341,0.046358,0.046375,0.046392,0.046409,0.046426,0.046444,0.046461,0.046478,0.046495,0.046513,0.04653,0.046547,0.046565,0.046582,0.0466,0.046617,0.046635,0.046652,0.04667,0.046688,0.046705,0.046723,0.046741,0.046758,0.046776,0.046794,0.046812,0.04683,0.046848,0.046866,0.046883,0.046901,0.046919,0.046938,0.046956,0.046974,0.046992,0.04701,0.047028,0.047046,0.047065,0.047083,0.047101,0.04712,0.047138,0.047156,0.047175,0.047193,0.047212,0.04723,0.047249,0.047268,0.047286,0.047305,0.047324,0.047342,0.047361,0.04738,0.047399,0.047418,0.047437,0.047455,0.047474,0.047493,0.047512,0.047531,0.047551,0.04757,0.047589,0.047608,0.047627,0.047646,0.047666,0.047685,0.047704,0.047724,0.047743,0.047763,0.047782,0.047802,0.047821,0.047841,0.04786,0.04788,0.0479,0.04792,0.047939,0.047959,0.047979,0.047999,0.048019,0.048039,0.048059,0.048079,0.048099,0.048119,0.048139,0.048159,0.048179,0.048199,0.048219,0.04824,0.04826,0.04828,0.048301,0.048321,0.048342,0.048362,0.048383,0.048403,0.048424,0.048444,0.048465,0.048486,0.048507,0.048527,0.048548,0.048569,0.04859,0.048611,0.048632,0.048653,0.048674,0.048695,0.048716,0.048737,0.048758,0.04878,0.048801,0.048822,0.048843,0.048865,0.048886,0.048908,0.048929,0.048951,0.048972,0.048994,0.049016,0.049037,0.049059,0.049081,0.049102,0.049124,0.049146,0.049168,0.04919,0.049212,0.049234,0.049256,0.049278,0.0493,0.049323,0.049345,0.049367,0.049389,0.049412,0.049434,0.049456,0.049479,0.049501,0.049524,0.049547,0.049569,0.049592,0.049615,0.049637,0.04966,0.049683,0.049706,0.049729,0.049752,0.049775,0.049798,0.049821,0.049844,0.049867,0.04989,0.049914,0.049937,0.04996,0.049984,0.050007,0.05003,0.050054,0.050078,0.050101,0.050125,0.050148,0.050172,0.050196,0.05022,0.050244,0.050267,0.050291,0.050315,0.050339,0.050363,0.050388,0.050412,0.050436,0.05046,0.050485,0.050509,0.050533,0.050558,0.050582,0.050607,0.050631,0.050656,0.05068,0.050705,0.05073,0.050755,0.05078,0.050804,0.050829,0.050854,0.050879,0.050904,0.05093,0.050955,0.05098,0.051005,0.05103,0.051056,0.051081,0.051107,0.051132,0.051158,0.051183,0.051209,0.051235,0.05126,0.051286,0.051312,0.051338,0.051364,0.05139,0.051416,0.051442,0.051468,0.051494,0.05152,0.051547,0.051573,0.051599,0.051626,0.051652,0.051679,0.051705,0.051732,0.051759,0.051785,0.051812,0.051839,0.051866,0.051893,0.05192,0.051947,0.051974,0.052001,0.052028,0.052055,0.052083,0.05211,0.052137,0.052165,0.052192,0.05222,0.052247,0.052275,0.052303,0.052331,0.052358,0.052386,0.052414,0.052442,0.05247,0.052498,0.052526,0.052555,0.052583,0.052611,0.052639,0.052668,0.052696,0.052725,0.052753,0.052782,0.052811,0.052839,0.052868,0.052897,0.052926,0.052955,0.052984,0.053013,0.053042,0.053071,0.053101,0.05313,0.053159,0.053189,0.053218,0.053248,0.053277,0.053307,0.053337,0.053366,0.053396,0.053426,0.053456,0.053486,0.053516,0.053546,0.053576,0.053606,0.053637,0.053667,0.053697,0.053728,0.053758,0.053789,0.05382,0.05385,0.053881,0.053912,0.053943,0.053974,0.054005,0.054036,0.054067,0.054098,0.054129,0.054161,0.054192,0.054224,0.054255,0.054287,0.054318,0.05435,0.054382,0.054413,0.054445,0.054477,0.054509,0.054541,0.054573,0.054606,0.054638,0.05467,0.054703,0.054735,0.054768,0.0548,0.054833,0.054865,0.054898,0.054931,0.054964,0.054997,0.05503,0.055063,0.055096,0.055129,0.055163,0.055196,0.05523,0.055263,0.055297,0.05533,0.055364,0.055398,0.055432,0.055465,0.055499,0.055533,0.055568,0.055602,0.055636,0.05567,0.055705,0.055739,0.055774,0.055808,0.055843,0.055878,0.055912,0.055947,0.055982,0.056017,0.056052,0.056087,0.056123,0.056158,0.056193,0.056229,0.056264,0.0563,0.056335,0.056371,0.056407,0.056443,0.056479,0.056515,0.056551,0.056587,0.056623,0.05666,0.056696,0.056732,0.056769,0.056805,0.056842,0.056879,0.056916,0.056953,0.05699,0.057027,0.057064,0.057101,0.057138,0.057176,0.057213,0.057251,0.057288,0.057326,0.057363,0.057401,0.057439,0.057477,0.057515,0.057553,0.057591,0.05763,0.057668,0.057707,0.057745,0.057784,0.057822,0.057861,0.0579,0.057939,0.057978,0.058017,0.058056,0.058095,0.058134,0.058174,0.058213,0.058253,0.058292,0.058332,0.058372,0.058412,0.058452,0.058492,0.058532,0.058572,0.058612,0.058653,0.058693,0.058734,0.058774,0.058815,0.058856,0.058897,0.058938,0.058979,0.05902,0.059061,0.059102,0.059144,0.059185,0.059227,0.059268,0.05931,0.059352,0.059394,0.059436,0.059478,0.05952,0.059562,0.059604,0.059647,0.059689,0.059732,0.059775,0.059817,0.05986,0.059903,0.059946,0.059989,0.060033,0.060076,0.060119,0.060163,0.060206,0.06025,0.060294,0.060337,0.060381,0.060425,0.06047,0.060514,0.060558,0.060602,0.060647,0.060691,0.060736,0.060781,0.060826,0.060871,0.060916,0.060961,0.061006,0.061051,0.061097,0.061142,0.061188,0.061234,0.061279,0.061325,0.061371,0.061417,0.061463,0.06151,0.061556,0.061602,0.061649,0.061696,0.061742,0.061789,0.061836,0.061883,0.06193,0.061978,0.062025,0.062072,0.06212,0.062168,0.062215,0.062263,0.062311,0.062359,0.062407,0.062455,0.062504,0.062552,0.062601,0.062649,0.062698,0.062747,0.062796,0.062845,0.062894,0.062943,0.062993,0.063042,0.063092,0.063141,0.063191,0.063241,0.063291,0.063341,0.063391,0.063441,0.063492,0.063542,0.063593,0.063643,0.063694,0.063745,0.063796,0.063847,0.063899,0.06395,0.064001,0.064053,0.064104,0.064156,0.064208,0.06426,0.064312,0.064364,0.064417,0.064469,0.064522,0.064574,0.064627,0.06468,0.064733,0.064786,0.064839,0.064892,0.064946,0.064999,0.065053,0.065107,0.065161,0.065215,0.065269,0.065323,0.065377,0.065432,0.065486,0.065541,0.065596,0.06565,0.065705,0.065761,0.065816,0.065871,0.065927,0.065982,0.066038,0.066094,0.06615,0.066206,0.066262,0.066318,0.066374,0.066431,0.066488,0.066544,0.066601,0.066658,0.066715,0.066773,0.06683,0.066887,0.066945,0.067003,0.06706,0.067118,0.067176,0.067235,0.067293,0.067351,0.06741,0.067469,0.067527,0.067586,0.067645,0.067704,0.067764,0.067823,0.067883,0.067942,0.068002,0.068062,0.068122,0.068182,0.068243,0.068303,0.068364,0.068424,0.068485,0.068546,0.068607,0.068668,0.068729,0.068791,0.068852,0.068914,0.068976,0.069038,0.0691,0.069162,0.069224,0.069287,0.06935,0.069412,0.069475,0.069538,0.069601,0.069664,0.069728,0.069791,0.069855,0.069919,0.069983,0.070047,0.070111,0.070175,0.07024,0.070304,0.070369,0.070434,0.070499,0.070564,0.070629,0.070695,0.07076,0.070826,0.070892,0.070957,0.071024,0.07109,0.071156,0.071223,0.071289,0.071356,0.071423,0.07149,0.071557,0.071624,0.071692,0.071759,0.071827,0.071895,0.071963,0.072031,0.0721,0.072168,0.072237,0.072305,0.072374,0.072443,0.072512,0.072582,0.072651,0.072721,0.072791,0.07286,0.07293,0.073001,0.073071,0.073141,0.073212,0.073283,0.073354,0.073425,0.073496,0.073567,0.073639,0.07371,0.073782,0.073854,0.073926,0.073998,0.074071,0.074143,0.074216,0.074289,0.074362,0.074435,0.074508,0.074582,0.074655,0.074729,0.074803,0.074877,0.074951,0.075026,0.0751,0.075175,0.07525,0.075325,0.0754,0.075475,0.075551,0.075626,0.075702,0.075778,0.075854,0.07593,0.076006,0.076083,0.07616,0.076237,0.076314,0.076391,0.076468,0.076546,0.076623,0.076701,0.076779,0.076857,0.076935,0.077014,0.077093,0.077171,0.07725,0.077329,0.077409,0.077488,0.077568,0.077647,0.077727,0.077807,0.077888,0.077968,0.078049,0.078129,0.07821,0.078291,0.078373,0.078454,0.078536,0.078617,0.078699,0.078781,0.078864,0.078946,0.079029,0.079111,0.079194,0.079277,0.079361,0.079444,0.079528,0.079612,0.079695,0.07978,0.079864,0.079948,0.080033,0.080118,0.080203,0.080288,0.080373,0.080459,0.080544,0.08063,0.080716,0.080803,0.080889,0.080976,0.081062,0.081149,0.081236,0.081324,0.081411,0.081499,0.081586,0.081674,0.081763,0.081851,0.081939,0.082028,0.082117,0.082206,0.082295,0.082385,0.082474,0.082564,0.082654,0.082744,0.082835,0.082925,0.083016,0.083107,0.083198,0.083289,0.083381,0.083472,0.083564,0.083656,0.083748,0.083841,0.083933,0.084026,0.084119,0.084212,0.084305,0.084399,0.084492,0.084586,0.08468,0.084775,0.084869,0.084964,0.085059,0.085154,0.085249,0.085344,0.08544,0.085536,0.085632,0.085728,0.085824,0.085921,0.086018,0.086115,0.086212,0.086309,0.086407,0.086504,0.086602,0.086701,0.086799,0.086897,0.086996,0.087095,0.087194,0.087294,0.087393,0.087493,0.087593,0.087693,0.087793,0.087894,0.087994,0.088095,0.088197,0.088298,0.088399,0.088501,0.088603,0.088705,0.088808,0.08891,0.089013,0.089116,0.089219,0.089323,0.089426,0.08953,0.089634,0.089738,0.089843,0.089947,0.090052,0.090157,0.090262,0.090368,0.090474,0.09058,0.090686,0.090792,0.090899,0.091005,0.091112,0.091219,0.091327,0.091434,0.091542,0.09165,0.091758,0.091867,0.091976,0.092084,0.092194,0.092303,0.092412,0.092522,0.092632,0.092742,0.092853,0.092963,0.093074,0.093185,0.093297,0.093408,0.09352,0.093632,0.093744,0.093856,0.093969,0.094082,0.094195,0.094308,0.094422,0.094535,0.094649,0.094764,0.094878,0.094993,0.095107,0.095222,0.095338,0.095453,0.095569,0.095685,0.095801,0.095918,0.096034,0.096151,0.096268,0.096386,0.096503,0.096621,0.096739,0.096858,0.096976,0.097095,0.097214,0.097333,0.097453,0.097572
